Phone timestamp;sensor timestamp [ns];timestamp [ms];ecg [uV]
2025-12-03T13:52:08.239;599627843833521280;0.0;5493
2025-12-03T13:52:08.246;599627843841213568;7.692288;5455
2025-12-03T13:52:08.254;599627843848905856;15.384576;5425
2025-12-03T13:52:08.262;599627843856598144;23.076864;5395
2025-12-03T13:52:08.269;599627843864290560;30.76928;5339
2025-12-03T13:52:08.277;599627843871982848;38.461567;5297
2025-12-03T13:52:08.285;599627843879675136;46.153854;5276
2025-12-03T13:52:08.292;599627843887367424;53.846146;5248
2025-12-03T13:52:08.300;599627843895059712;61.538433;5231
2025-12-03T13:52:08.308;599627843902752000;69.23072;5220
2025-12-03T13:52:08.315;599627843910444416;76.923134;5243
2025-12-03T13:52:08.323;599627843918136704;84.615425;5427
2025-12-03T13:52:08.331;599627843925828992;92.30771;5747
2025-12-03T13:52:08.339;599627843933521280;100.0;5969
2025-12-03T13:52:08.346;599627843941213568;107.69229;5806
2025-12-03T13:52:08.354;599627843948905856;115.384575;5171
2025-12-03T13:52:08.362;599627843956598144;123.076866;4631
2025-12-03T13:52:08.369;599627843964290560;130.76929;4657
2025-12-03T13:52:08.377;599627843971982848;138.46156;4764
2025-12-03T13:52:08.385;599627843979675136;146.15385;4647
2025-12-03T13:52:08.392;599627843987367424;153.84615;4591
2025-12-03T13:52:08.400;599627843995059712;161.53844;4598
2025-12-03T13:52:08.408;599627844002752000;169.23071;4538
2025-12-03T13:52:08.415;599627844010444416;176.92314;4498
2025-12-03T13:52:08.423;599627844018136704;184.61542;4482
2025-12-03T13:52:08.431;599627844025828992;192.30771;4428
2025-12-03T13:52:08.439;599627844033521280;200.0;4390
2025-12-03T13:52:08.446;599627844041213568;207.69229;4353
2025-12-03T13:52:08.454;599627844048905856;215.38458;4299
2025-12-03T13:52:08.462;599627844056598144;223.07686;4269
2025-12-03T13:52:08.469;599627844064290560;230.76929;4239
2025-12-03T13:52:08.477;599627844071982848;238.46156;4197
2025-12-03T13:52:08.485;599627844079675136;246.15385;4159
2025-12-03T13:52:08.492;599627844087367424;253.84615;4117
2025-12-03T13:52:08.500;599627844095059712;261.53842;4066
2025-12-03T13:52:08.508;599627844102752000;269.2307;4033
2025-12-03T13:52:08.515;599627844110444416;276.92313;4003
2025-12-03T13:52:08.523;599627844118136704;284.61542;3968
2025-12-03T13:52:08.531;599627844125828992;292.3077;3933
2025-12-03T13:52:08.539;599627844133521280;300.0;3895
2025-12-03T13:52:08.546;599627844141213568;307.6923;3858
2025-12-03T13:52:08.554;599627844148905856;315.38458;3804
2025-12-03T13:52:08.562;599627844156598144;323.07687;3743
2025-12-03T13:52:08.569;599627844164290560;330.7693;3711
2025-12-03T13:52:08.577;599627844171982848;338.46158;3680
2025-12-03T13:52:08.585;599627844179675136;346.15387;3624
2025-12-03T13:52:08.592;599627844187367424;353.84613;3575
2025-12-03T13:52:08.600;599627844195059712;361.53842;3538
2025-12-03T13:52:08.608;599627844202752000;369.2307;3496
2025-12-03T13:52:08.615;599627844210444416;376.92313;3463
2025-12-03T13:52:08.623;599627844218136704;384.61542;3428
2025-12-03T13:52:08.631;599627844225828992;392.3077;3381
2025-12-03T13:52:08.639;599627844233521280;400.0;3342
2025-12-03T13:52:08.646;599627844241213568;407.6923;3311
2025-12-03T13:52:08.654;599627844248905856;415.38458;3276
2025-12-03T13:52:08.662;599627844256598144;423.07687;3244
2025-12-03T13:52:08.669;599627844264290560;430.7693;3206
2025-12-03T13:52:08.677;599627844271982848;438.46158;3155
2025-12-03T13:52:08.685;599627844279675136;446.15387;3101
2025-12-03T13:52:08.692;599627844287367424;453.84613;3057
2025-12-03T13:52:08.700;599627844295059712;461.53842;3026
2025-12-03T13:52:08.708;599627844302752000;469.2307;2996
2025-12-03T13:52:08.715;599627844310444416;476.92313;2952
2025-12-03T13:52:08.723;599627844318136704;484.61542;2905
2025-12-03T13:52:08.731;599627844325828992;492.3077;2872
2025-12-03T13:52:08.739;599627844333521280;500.0;2847
2025-12-03T13:52:08.746;599627844341213568;507.6923;2814
2025-12-03T13:52:08.754;599627844348905856;515.3846;2784
2025-12-03T13:52:08.762;599627844356598144;523.07684;2756
2025-12-03T13:52:08.769;599627844364290560;530.7693;2725
2025-12-03T13:52:08.777;599627844371982848;538.46155;2695
2025-12-03T13:52:08.785;599627844379675136;546.1539;2671
2025-12-03T13:52:08.792;599627844387367360;553.84607;2650
2025-12-03T13:52:08.800;599627844395059200;561.5379;2622
2025-12-03T13:52:08.808;599627844402750976;569.2297;2587
2025-12-03T13:52:08.815;599627844410442752;576.92145;2559
2025-12-03T13:52:08.823;599627844418134528;584.6132;2527
2025-12-03T13:52:08.831;599627844425826304;592.30505;2487
2025-12-03T13:52:08.838;599627844433518208;599.99695;2459
2025-12-03T13:52:08.846;599627844441209984;607.6887;2429
2025-12-03T13:52:08.854;599627844448901760;615.3805;2389
2025-12-03T13:52:08.862;599627844456593536;623.07227;2358
2025-12-03T13:52:08.869;599627844464285312;630.76404;2330
2025-12-03T13:52:08.877;599627844471977088;638.4558;2312
2025-12-03T13:52:08.885;599627844479668864;646.1476;2298
2025-12-03T13:52:08.892;599627844487360640;653.83936;2263
2025-12-03T13:52:08.900;599627844495052416;661.5311;2214
2025-12-03T13:52:08.908;599627844502744320;669.223;2188
2025-12-03T13:52:08.915;599627844510436096;676.9148;2167
2025-12-03T13:52:08.923;599627844518127872;684.60657;2127
2025-12-03T13:52:08.931;599627844525819648;692.29834;2099
2025-12-03T13:52:08.938;599627844533511424;699.9902;2078
2025-12-03T13:52:08.946;599627844541203200;707.68195;2048
2025-12-03T13:52:08.954;599627844548894976;715.3737;2020
2025-12-03T13:52:08.962;599627844556586752;723.0655;1999
2025-12-03T13:52:08.969;599627844564278528;730.75726;1973
2025-12-03T13:52:08.977;599627844571970432;738.44916;1961
2025-12-03T13:52:08.985;599627844579662208;746.1409;2001
2025-12-03T13:52:08.992;599627844587353984;753.8327;2144
2025-12-03T13:52:09.000;599627844595045760;761.5245;2422
2025-12-03T13:52:09.008;599627844602737536;769.21625;2730
2025-12-03T13:52:09.015;599627844610429312;776.908;2770
2025-12-03T13:52:09.023;599627844618121088;784.5998;2284
2025-12-03T13:52:09.031;599627844625812864;792.29156;1653
2025-12-03T13:52:09.038;599627844633504640;799.98334;1532
2025-12-03T13:52:09.046;599627844641196544;807.6753;1700
2025-12-03T13:52:09.054;599627844648888320;815.36707;1665
2025-12-03T13:52:09.062;599627844656580096;823.05884;1581
2025-12-03T13:52:09.069;599627844664271872;830.7506;1604
2025-12-03T13:52:09.077;599627844671963648;838.4424;1597
2025-12-03T13:52:09.085;599627844679655424;846.13416;1557
2025-12-03T13:52:09.092;599627844687347200;853.8259;1553
2025-12-03T13:52:09.100;599627844695038976;861.5177;1550
2025-12-03T13:52:09.108;599627844702730752;869.2095;1534
2025-12-03T13:52:09.115;599627844710422656;876.90137;1522
2025-12-03T13:52:09.123;599627844718114432;884.59314;1508
2025-12-03T13:52:09.131;599627844725806208;892.2849;1494
2025-12-03T13:52:09.138;599627844733497984;899.9767;1483
2025-12-03T13:52:09.146;599627844741189760;907.66846;1466
2025-12-03T13:52:09.154;599627844748881536;915.3602;1457
2025-12-03T13:52:09.162;599627844756573312;923.052;1450
2025-12-03T13:52:09.169;599627844764265088;930.74384;1429
2025-12-03T13:52:09.177;599627844771956864;938.4356;1413
2025-12-03T13:52:09.185;599627844779648768;946.1275;1410
2025-12-03T13:52:09.192;599627844787340544;953.8193;1401
2025-12-03T13:52:09.200;599627844795032320;961.51105;1389
2025-12-03T13:52:09.208;599627844802724096;969.2028;1375
2025-12-03T13:52:09.215;599627844810415872;976.8946;1366
2025-12-03T13:52:09.223;599627844818107648;984.58636;1359
2025-12-03T13:52:09.231;599627844825799424;992.27814;1349
2025-12-03T13:52:09.238;599627844833491200;999.9699;1335
2025-12-03T13:52:09.246;599627844841182976;1007.6617;1321
2025-12-03T13:52:09.254;599627844848874880;1015.3536;1305
2025-12-03T13:52:09.262;599627844856566656;1023.04535;1289
2025-12-03T13:52:09.269;599627844864258432;1030.7372;1272
2025-12-03T13:52:09.277;599627844871950208;1038.429;1254
2025-12-03T13:52:09.285;599627844879641984;1046.1207;1235
2025-12-03T13:52:09.292;599627844887333760;1053.8125;1219
2025-12-03T13:52:09.300;599627844895025536;1061.5043;1200
2025-12-03T13:52:09.308;599627844902717312;1069.196;1177
2025-12-03T13:52:09.315;599627844910409088;1076.8878;1158
2025-12-03T13:52:09.323;599627844918100992;1084.5797;1137
2025-12-03T13:52:09.331;599627844925792768;1092.2715;1109
2025-12-03T13:52:09.338;599627844933484544;1099.9633;1083
2025-12-03T13:52:09.346;599627844941176320;1107.655;1065
2025-12-03T13:52:09.354;599627844948868042;1115.3468;1048
2025-12-03T13:52:09.362;599627844956559872;1123.0386;1030
2025-12-03T13:52:09.369;599627844964251648;1130.7303;1011
2025-12-03T13:52:09.377;599627844971943424;1138.4221;999
2025-12-03T13:52:09.385;599627844979635200;1146.1139;985
2025-12-03T13:52:09.392;599627844987326976;1153.8057;969
2025-12-03T13:52:09.400;599627844995018880;1161.4976;962
2025-12-03T13:52:09.408;599627845002710656;1169.1893;952
2025-12-03T13:52:09.415;599627845010402432;1176.8811;938
2025-12-03T13:52:09.423;599627845018094208;1184.5729;936
2025-12-03T13:52:09.431;599627845025785984;1192.2646;927
2025-12-03T13:52:09.438;599627845033477760;1199.9564;910
2025-12-03T13:52:09.446;599627845041169536;1207.6483;906
2025-12-03T13:52:09.454;599627845048861312;1215.3401;908
2025-12-03T13:52:09.462;599627845056553088;1223.0319;903
2025-12-03T13:52:09.469;599627845064244992;1230.7238;896
2025-12-03T13:52:09.477;599627845071936768;1238.4155;892
2025-12-03T13:52:09.485;599627845079628544;1246.1073;885
2025-12-03T13:52:09.492;599627845087320320;1253.7991;875
2025-12-03T13:52:09.500;599627845095012096;1261.4908;864
2025-12-03T13:52:09.508;599627845102703872;1269.1826;857
2025-12-03T13:52:09.515;599627845110395648;1276.8744;847
2025-12-03T13:52:09.523;599627845118087424;1284.5662;836
2025-12-03T13:52:09.531;599627845125779200;1292.2579;829
2025-12-03T13:52:09.538;599627845133471104;1299.9498;819
2025-12-03T13:52:09.546;599627845141162880;1307.6416;808
2025-12-03T13:52:09.554;599627845148854656;1315.3334;798
2025-12-03T13:52:09.562;599627845156546432;1323.0251;780
2025-12-03T13:52:09.569;599627845164238208;1330.7169;768
2025-12-03T13:52:09.577;599627845171929984;1338.4087;782
2025-12-03T13:52:09.585;599627845179621760;1346.1005;777
2025-12-03T13:52:09.592;599627845187313536;1353.7922;761
2025-12-03T13:52:09.600;599627845195005312;1361.484;763
2025-12-03T13:52:09.608;599627845202697216;1369.1759;763
2025-12-03T13:52:09.615;599627845210388992;1376.8677;745
2025-12-03T13:52:09.623;599627845218080768;1384.5594;738
2025-12-03T13:52:09.631;599627845225772544;1392.2512;738
2025-12-03T13:52:09.638;599627845233464320;1399.943;728
2025-12-03T13:52:09.646;599627845241156096;1407.6348;714
2025-12-03T13:52:09.654;599627845248847872;1415.3265;707
2025-12-03T13:52:09.662;599627845256539648;1423.0183;700
2025-12-03T13:52:09.669;599627845264231424;1430.7101;691
2025-12-03T13:52:09.677;599627845271923328;1438.4021;707
2025-12-03T13:52:09.685;599627845279615104;1446.0939;787
2025-12-03T13:52:09.692;599627845287306880;1453.7856;980
2025-12-03T13:52:09.700;599627845294998656;1461.4774;1305
2025-12-03T13:52:09.708;599627845302690432;1469.1692;1609
2025-12-03T13:52:09.715;599627845310382208;1476.861;1557
2025-12-03T13:52:09.723;599627845318073984;1484.5527;994
2025-12-03T13:52:09.731;599627845325765760;1492.2445;439
2025-12-03T13:52:09.738;599627845333457536;1499.9363;425
2025-12-03T13:52:09.746;599627845341149440;1507.6282;586
2025-12-03T13:52:09.754;599627845348841216;1515.32;539
2025-12-03T13:52:09.762;599627845356532992;1523.0117;509
2025-12-03T13:52:09.769;599627845364224768;1530.7035;555
2025-12-03T13:52:09.777;599627845371916544;1538.3953;548
2025-12-03T13:52:09.785;599627845379608320;1546.087;527
2025-12-03T13:52:09.792;599627845387300096;1553.7788;537
2025-12-03T13:52:09.800;599627845394991872;1561.4706;541
2025-12-03T13:52:09.808;599627845402683648;1569.1624;541
2025-12-03T13:52:09.815;599627845410375552;1576.8542;546
2025-12-03T13:52:09.823;599627845418067328;1584.546;541
2025-12-03T13:52:09.831;599627845425759104;1592.2378;541
2025-12-03T13:52:09.838;599627845433450880;1599.9296;541
2025-12-03T13:52:09.846;599627845441142656;1607.6213;534
2025-12-03T13:52:09.854;599627845448834432;1615.3131;534
2025-12-03T13:52:09.862;599627845456526208;1623.0049;539
2025-12-03T13:52:09.869;599627845464217984;1630.6967;539
2025-12-03T13:52:09.877;599627845471909760;1638.3884;534
2025-12-03T13:52:09.885;599627845479601664;1646.0804;530
2025-12-03T13:52:09.892;599627845487293440;1653.7722;530
2025-12-03T13:52:09.900;599627845494985216;1661.464;532
2025-12-03T13:52:09.908;599627845502676992;1669.1558;527
2025-12-03T13:52:09.915;599627845510368724;1676.8475;525
2025-12-03T13:52:09.923;599627845518060544;1684.5393;525
2025-12-03T13:52:09.931;599627845525752320;1692.2311;518
2025-12-03T13:52:09.938;599627845533444096;1699.9229;516
2025-12-03T13:52:09.946;599627845541135872;1707.6146;516
2025-12-03T13:52:09.954;599627845548827648;1715.3064;511
2025-12-03T13:52:09.961;599627845556519552;1722.9983;506
2025-12-03T13:52:09.969;599627845564211328;1730.6901;490
2025-12-03T13:52:09.977;599627845571903104;1738.3818;464
2025-12-03T13:52:09.985;599627845579594880;1746.0736;460
2025-12-03T13:52:09.992;599627845587286656;1753.7654;462
2025-12-03T13:52:10.000;599627845594978432;1761.4572;453
2025-12-03T13:52:10.008;599627845602670208;1769.1489;446
2025-12-03T13:52:10.015;599627845610361984;1776.8407;436
2025-12-03T13:52:10.023;599627845618053760;1784.5325;413
2025-12-03T13:52:10.031;599627845625745664;1792.2244;394
2025-12-03T13:52:10.038;599627845633437440;1799.9161;385
2025-12-03T13:52:10.046;599627845641129216;1807.6079;369
2025-12-03T13:52:10.054;599627845648820992;1815.2997;352
2025-12-03T13:52:10.061;599627845656512768;1822.9915;343
2025-12-03T13:52:10.069;599627845664204544;1830.6832;333
2025-12-03T13:52:10.077;599627845671896320;1838.375;326
2025-12-03T13:52:10.085;599627845679588096;1846.0668;324
2025-12-03T13:52:10.092;599627845687279872;1853.7585;319
2025-12-03T13:52:10.100;599627845694971776;1861.4504;315
2025-12-03T13:52:10.108;599627845702663552;1869.1422;312
2025-12-03T13:52:10.115;599627845710355328;1876.8341;303
2025-12-03T13:52:10.123;599627845718047104;1884.5259;301
2025-12-03T13:52:10.131;599627845725738880;1892.2177;310
2025-12-03T13:52:10.138;599627845733430656;1899.9094;308
2025-12-03T13:52:10.146;599627845741122432;1907.6012;294
2025-12-03T13:52:10.154;599627845748814208;1915.293;291
2025-12-03T13:52:10.161;599627845756505984;1922.9847;301
2025-12-03T13:52:10.169;599627845764197888;1930.6766;301
2025-12-03T13:52:10.177;599627845771889664;1938.3684;294
2025-12-03T13:52:10.185;599627845779581440;1946.0602;291
2025-12-03T13:52:10.192;599627845787273216;1953.752;294
2025-12-03T13:52:10.200;599627845794964992;1961.4437;282
2025-12-03T13:52:10.208;599627845802656768;1969.1355;273
2025-12-03T13:52:10.215;599627845810348544;1976.8273;277
2025-12-03T13:52:10.223;599627845818040320;1984.519;273
2025-12-03T13:52:10.231;599627845825732096;1992.2108;261
2025-12-03T13:52:10.238;599627845833424000;1999.9027;261
2025-12-03T13:52:10.246;599627845841115776;2007.5945;259
2025-12-03T13:52:10.254;599627845848807552;2015.2863;249
2025-12-03T13:52:10.261;599627845856499328;2022.978;245
2025-12-03T13:52:10.269;599627845864191104;2030.6698;242
2025-12-03T13:52:10.277;599627845871882880;2038.3616;233
2025-12-03T13:52:10.285;599627845879574656;2046.0533;224
2025-12-03T13:52:10.292;599627845887266432;2053.745;219
2025-12-03T13:52:10.300;599627845894958208;2061.437;226
2025-12-03T13:52:10.308;599627845902650112;2069.129;240
2025-12-03T13:52:10.315;599627845910341888;2076.8206;235
2025-12-03T13:52:10.323;599627845918033664;2084.5125;224
2025-12-03T13:52:10.331;599627845925725440;2092.204;228
2025-12-03T13:52:10.338;599627845933417216;2099.896;224
2025-12-03T13:52:10.346;599627845941108992;2107.5876;210
2025-12-03T13:52:10.354;599627845948800768;2115.2795;210
2025-12-03T13:52:10.361;599627845956492544;2122.9712;214
2025-12-03T13:52:10.369;599627845964184320;2130.663;205
2025-12-03T13:52:10.377;599627845971876224;2138.355;196
2025-12-03T13:52:10.385;599627845979568000;2146.0466;196
2025-12-03T13:52:10.392;599627845987259776;2153.7385;196
2025-12-03T13:52:10.400;599627845994951552;2161.4302;189
2025-12-03T13:52:10.408;599627846002643328;2169.122;207
2025-12-03T13:52:10.415;599627846010335104;2176.8137;305
2025-12-03T13:52:10.423;599627846018026880;2184.5056;518
2025-12-03T13:52:10.431;599627846025718656;2192.1973;836
2025-12-03T13:52:10.438;599627846033410432;2199.8892;1111
2025-12-03T13:52:10.446;599627846041102336;2207.5813;1015
2025-12-03T13:52:10.454;599627846048794112;2215.273;429
2025-12-03T13:52:10.461;599627846056485888;2222.9648;-74
2025-12-03T13:52:10.469;599627846064177664;2230.6565;-35
2025-12-03T13:52:10.477;599627846071869406;2238.3481;112
2025-12-03T13:52:10.485;599627846079561216;2246.04;49
2025-12-03T13:52:10.492;599627846087252992;2253.732;32
2025-12-03T13:52:10.500;599627846094944768;2261.4236;86
2025-12-03T13:52:10.508;599627846102636544;2269.1155;70
2025-12-03T13:52:10.515;599627846110328320;2276.8071;53
2025-12-03T13:52:10.523;599627846118020224;2284.499;84
2025-12-03T13:52:10.531;599627846125712000;2292.1907;91
2025-12-03T13:52:10.538;599627846133403776;2299.8826;79
2025-12-03T13:52:10.546;599627846141095552;2307.5742;81
2025-12-03T13:52:10.554;599627846148787328;2315.266;84
2025-12-03T13:52:10.561;599627846156479104;2322.9578;72
2025-12-03T13:52:10.569;599627846164170880;2330.6497;65
2025-12-03T13:52:10.577;599627846171862656;2338.3413;70
2025-12-03T13:52:10.585;599627846179554432;2346.0332;77
2025-12-03T13:52:10.592;599627846187246336;2353.7249;77
2025-12-03T13:52:10.600;599627846194938112;2361.4167;74
2025-12-03T13:52:10.608;599627846202629888;2369.1084;79
2025-12-03T13:52:10.615;599627846210321664;2376.8003;86
2025-12-03T13:52:10.623;599627846218013440;2384.492;93
2025-12-03T13:52:10.631;599627846225705216;2392.1838;93
2025-12-03T13:52:10.638;599627846233396992;2399.8755;84
2025-12-03T13:52:10.646;599627846241088768;2407.5674;77
2025-12-03T13:52:10.654;599627846248780544;2415.259;79
2025-12-03T13:52:10.661;599627846256472448;2422.9512;86
2025-12-03T13:52:10.669;599627846264164224;2430.6428;86
2025-12-03T13:52:10.677;599627846271856000;2438.3347;86
2025-12-03T13:52:10.685;599627846279547776;2446.0266;84
2025-12-03T13:52:10.692;599627846287239552;2453.7183;74
2025-12-03T13:52:10.700;599627846294931328;2461.4102;70
2025-12-03T13:52:10.708;599627846302623104;2469.1018;72
2025-12-03T13:52:10.715;599627846310314880;2476.7937;67
2025-12-03T13:52:10.723;599627846318006656;2484.4854;60
2025-12-03T13:52:10.731;599627846325698560;2492.1775;56
2025-12-03T13:52:10.738;599627846333390336;2499.8691;56
2025-12-03T13:52:10.746;599627846341082112;2507.561;51
2025-12-03T13:52:10.754;599627846348773888;2515.2527;39
2025-12-03T13:52:10.761;599627846356465664;2522.9446;25
2025-12-03T13:52:10.769;599627846364157440;2530.6362;16
2025-12-03T13:52:10.777;599627846371849216;2538.3281;4
2025-12-03T13:52:10.785;599627846379540992;2546.0198;-11
2025-12-03T13:52:10.792;599627846387232768;2553.7117;-18
2025-12-03T13:52:10.800;599627846394924672;2561.4033;-14
2025-12-03T13:52:10.808;599627846402616448;2569.0952;-21
2025-12-03T13:52:10.815;599627846410308224;2576.7869;-28
2025-12-03T13:52:10.823;599627846418000000;2584.4788;-23
2025-12-03T13:52:10.831;599627846425691776;2592.1704;-25
2025-12-03T13:52:10.838;599627846433383552;2599.8623;-30
2025-12-03T13:52:10.846;599627846441075328;2607.554;-30
2025-12-03T13:52:10.854;599627846448767104;2615.2458;-28
2025-12-03T13:52:10.861;599627846456458880;2622.9375;-28
2025-12-03T13:52:10.869;599627846464150784;2630.6294;-25
2025-12-03T13:52:10.877;599627846471842560;2638.321;-21
2025-12-03T13:52:10.885;599627846479534336;2646.013;-16
2025-12-03T13:52:10.892;599627846487226112;2653.7046;-21
2025-12-03T13:52:10.900;599627846494917888;2661.3965;-28
2025-12-03T13:52:10.908;599627846502609664;2669.0881;-23
2025-12-03T13:52:10.915;599627846510301440;2676.78;-18
2025-12-03T13:52:10.923;599627846517993216;2684.472;-21
2025-12-03T13:52:10.931;599627846525684992;2692.1636;-25
2025-12-03T13:52:10.938;599627846533376896;2699.8557;-25
2025-12-03T13:52:10.946;599627846541068672;2707.5474;-21
2025-12-03T13:52:10.954;599627846548760448;2715.2393;-18
2025-12-03T13:52:10.961;599627846556452224;2722.931;-16
2025-12-03T13:52:10.969;599627846564144000;2730.6228;-21
2025-12-03T13:52:10.977;599627846571835776;2738.3145;-28
2025-12-03T13:52:10.985;599627846579527552;2746.0063;-32
2025-12-03T13:52:10.992;599627846587219328;2753.698;-30
2025-12-03T13:52:11.000;599627846594911104;2761.39;-39
2025-12-03T13:52:11.008;599627846602603008;2769.0818;-51
2025-12-03T13:52:11.015;599627846610294784;2776.7737;-46
2025-12-03T13:52:11.023;599627846617986560;2784.4653;-32
2025-12-03T13:52:11.031;599627846625678336;2792.1572;-21
2025-12-03T13:52:11.038;599627846633370088;2799.8486;-21
2025-12-03T13:52:11.046;599627846641061888;2807.5408;-21
2025-12-03T13:52:11.054;599627846648753664;2815.2324;-14
2025-12-03T13:52:11.061;599627846656445440;2822.9243;-18
2025-12-03T13:52:11.069;599627846664137216;2830.616;-35
2025-12-03T13:52:11.077;599627846671828992;2838.3079;-39
2025-12-03T13:52:11.084;599627846679520896;2845.9995;-32
2025-12-03T13:52:11.092;599627846687212672;2853.6914;-42
2025-12-03T13:52:11.100;599627846694904448;2861.383;-58
2025-12-03T13:52:11.108;599627846702596224;2869.075;-56
2025-12-03T13:52:11.115;599627846710288000;2876.7666;-39
2025-12-03T13:52:11.123;599627846717979776;2884.4585;-32
2025-12-03T13:52:11.131;599627846725671552;2892.1504;7
2025-12-03T13:52:11.138;599627846733363328;2899.842;135
2025-12-03T13:52:11.146;599627846741055104;2907.534;385
2025-12-03T13:52:11.154;599627846748747008;2915.2256;731
2025-12-03T13:52:11.161;599627846756438784;2922.9175;948
2025-12-03T13:52:11.169;599627846764130560;2930.6091;674
2025-12-03T13:52:11.177;599627846771822336;2938.301;2
2025-12-03T13:52:11.184;599627846779514112;2945.9927;-338
2025-12-03T13:52:11.192;599627846787205888;2953.6846;-179
2025-12-03T13:52:11.200;599627846794897664;2961.3762;-95
2025-12-03T13:52:11.208;599627846802589440;2969.068;-172
2025-12-03T13:52:11.215;599627846810281216;2976.7598;-144
2025-12-03T13:52:11.223;599627846817973120;2984.452;-105
2025-12-03T13:52:11.231;599627846825664896;2992.1436;-130
2025-12-03T13:52:11.238;599627846833356672;2999.8354;-128
2025-12-03T13:52:11.246;599627846841048448;3007.527;-105
2025-12-03T13:52:11.254;599627846848740224;3015.219;-102
2025-12-03T13:52:11.261;599627846856432000;3022.9106;-95
2025-12-03T13:52:11.269;599627846864123776;3030.6025;-81
2025-12-03T13:52:11.277;599627846871815552;3038.2942;-77
2025-12-03T13:52:11.284;599627846879507328;3045.986;-74
2025-12-03T13:52:11.292;599627846887199232;3053.678;-65
2025-12-03T13:52:11.300;599627846894891008;3061.3699;-56
2025-12-03T13:52:11.308;599627846902582784;3069.0615;-56
2025-12-03T13:52:11.315;599627846910274560;3076.7534;-53
2025-12-03T13:52:11.323;599627846917966336;3084.445;-44
2025-12-03T13:52:11.331;599627846925658112;3092.137;-39
2025-12-03T13:52:11.338;599627846933349888;3099.8289;-39
2025-12-03T13:52:11.346;599627846941041664;3107.5205;-39
2025-12-03T13:52:11.354;599627846948733440;3115.2124;-32
2025-12-03T13:52:11.361;599627846956425344;3122.904;-28
2025-12-03T13:52:11.369;599627846964117120;3130.596;-23
2025-12-03T13:52:11.377;599627846971808896;3138.2876;-16
2025-12-03T13:52:11.384;599627846979500672;3145.9795;-11
2025-12-03T13:52:11.392;599627846987192448;3153.6711;-9
2025-12-03T13:52:11.400;599627846994884224;3161.363;-11
2025-12-03T13:52:11.408;599627847002576000;3169.0547;-28
2025-12-03T13:52:11.415;599627847010267776;3176.7466;-37
2025-12-03T13:52:11.423;599627847017959552;3184.4382;-30
2025-12-03T13:52:11.431;599627847025651456;3192.1301;-30
2025-12-03T13:52:11.438;599627847033343232;3199.8218;-37
2025-12-03T13:52:11.446;599627847041035008;3207.5137;-39
2025-12-03T13:52:11.454;599627847048726784;3215.2053;-35
2025-12-03T13:52:11.461;599627847056418560;3222.8972;-21
2025-12-03T13:52:11.469;599627847064110336;3230.5889;-21
2025-12-03T13:52:11.477;599627847071802112;3238.2808;-42
2025-12-03T13:52:11.484;599627847079493888;3245.9724;-60
2025-12-03T13:52:11.492;599627847087185664;3253.6643;-74
2025-12-03T13:52:11.500;599627847094877568;3261.3562;-84
2025-12-03T13:52:11.508;599627847102569344;3269.048;-88
2025-12-03T13:52:11.515;599627847110261120;3276.7397;-88
2025-12-03T13:52:11.523;599627847117952896;3284.4316;-79
2025-12-03T13:52:11.531;599627847125644672;3292.1233;-70
2025-12-03T13:52:11.538;599627847133336448;3299.8152;-77
2025-12-03T13:52:11.546;599627847141028224;3307.5068;-84
2025-12-03T13:52:11.554;599627847148720000;3315.1987;-81
2025-12-03T13:52:11.561;599627847156411776;3322.8904;-81
2025-12-03T13:52:11.569;599627847164103680;3330.5825;-93
2025-12-03T13:52:11.577;599627847171795456;3338.2744;-98
2025-12-03T13:52:11.584;599627847179487232;3345.966;-81
2025-12-03T13:52:11.592;599627847187179008;3353.658;-56
2025-12-03T13:52:11.600;599627847194870770;3361.3494;-35
2025-12-03T13:52:11.608;599627847202562944;3369.0417;-4
2025-12-03T13:52:11.615;599627847210255104;3376.7336;42
2025-12-03T13:52:11.623;599627847217947392;3384.426;102
2025-12-03T13:52:11.631;599627847225639552;3392.1182;130
2025-12-03T13:52:11.638;599627847233331840;3399.8105;84
2025-12-03T13:52:11.646;599627847241024000;3407.503;70
2025-12-03T13:52:11.654;599627847248716160;3415.1948;207
2025-12-03T13:52:11.661;599627847256408448;3422.8872;401
2025-12-03T13:52:11.669;599627847264100608;3430.579;544
2025-12-03T13:52:11.677;599627847271792768;3438.2715;651
2025-12-03T13:52:11.684;599627847279485056;3445.9639;724
2025-12-03T13:52:11.692;599627847287177216;3453.656;707
2025-12-03T13:52:11.700;599627847294869504;3461.3484;506
2025-12-03T13:52:11.708;599627847302561664;3469.0403;128
2025-12-03T13:52:11.715;599627847310253824;3476.7324;-163
2025-12-03T13:52:11.723;599627847317946112;3484.4248;-263
2025-12-03T13:52:11.731;599627847325638272;3492.117;-298
2025-12-03T13:52:11.738;599627847333330432;3499.8093;-315
2025-12-03T13:52:11.746;599627847341022720;3507.5015;-294
2025-12-03T13:52:11.754;599627847348714880;3515.1936;-268
2025-12-03T13:52:11.761;599627847356407168;3522.886;-261
2025-12-03T13:52:11.769;599627847364099328;3530.578;-245
2025-12-03T13:52:11.777;599627847371791488;3538.2703;-226
2025-12-03T13:52:11.784;599627847379483776;3545.9624;-224
2025-12-03T13:52:11.792;599627847387175936;3553.6548;-212
2025-12-03T13:52:11.800;599627847394868096;3561.347;-191
2025-12-03T13:52:11.808;599627847402560384;3569.039;-184
2025-12-03T13:52:11.815;599627847410252544;3576.7312;-179
2025-12-03T13:52:11.823;599627847417944832;3584.4233;-163
2025-12-03T13:52:11.831;599627847425636992;3592.1157;-154
2025-12-03T13:52:11.838;599627847433329152;3599.808;-149
2025-12-03T13:52:11.846;599627847441021440;3607.5002;-147
2025-12-03T13:52:11.854;599627847448713600;3615.1924;-147
2025-12-03T13:52:11.861;599627847456405760;3622.8843;-149
2025-12-03T13:52:11.869;599627847464098048;3630.5767;-151
2025-12-03T13:52:11.877;599627847471790208;3638.269;-149
2025-12-03T13:52:11.884;599627847479482496;3645.9612;-149
2025-12-03T13:52:11.892;599627847487174656;3653.6536;-151
2025-12-03T13:52:11.900;599627847494866816;3661.3455;-154
2025-12-03T13:52:11.908;599627847502559104;3669.0378;-151
2025-12-03T13:52:11.915;599627847510251264;3676.7297;-147
2025-12-03T13:52:11.923;599627847517943424;3684.422;-135
2025-12-03T13:52:11.931;599627847525635712;3692.1145;-126
2025-12-03T13:52:11.938;599627847533327872;3699.8066;-109
2025-12-03T13:52:11.946;599627847541020160;3707.499;-91
2025-12-03T13:52:11.954;599627847548712320;3715.191;-77
2025-12-03T13:52:11.961;599627847556404480;3722.883;-65
2025-12-03T13:52:11.969;599627847564096768;3730.5754;-60
2025-12-03T13:52:11.977;599627847571788928;3738.2676;-60
2025-12-03T13:52:11.984;599627847579481088;3745.96;-60
2025-12-03T13:52:11.992;599627847587173376;3753.6523;-63
2025-12-03T13:52:12.000;599627847594865536;3761.3442;-65
2025-12-03T13:52:12.008;599627847602557824;3769.0366;-63
2025-12-03T13:52:12.015;599627847610249984;3776.7285;-58
2025-12-03T13:52:12.023;599627847617942144;3784.421;-56
2025-12-03T13:52:12.031;599627847625634432;3792.113;-53
2025-12-03T13:52:12.038;599627847633326592;3799.8054;-51
2025-12-03T13:52:12.046;599627847641018752;3807.4976;-51
2025-12-03T13:52:12.054;599627847648711040;3815.1897;-46
2025-12-03T13:52:12.061;599627847656403200;3822.8818;-39
2025-12-03T13:52:12.069;599627847664095488;3830.574;-42
2025-12-03T13:52:12.077;599627847671787648;3838.2664;-44
2025-12-03T13:52:12.084;599627847679479808;3845.9587;-53
2025-12-03T13:52:12.092;599627847687172096;3853.651;-53
2025-12-03T13:52:12.100;599627847694864256;3861.343;-42
2025-12-03T13:52:12.108;599627847702556416;3869.035;-32
2025-12-03T13:52:12.115;599627847710248704;3876.7273;-37
2025-12-03T13:52:12.123;599627847717940864;3884.4197;-35
2025-12-03T13:52:12.131;599627847725633152;3892.1118;-32
2025-12-03T13:52:12.138;599627847733325312;3899.8042;-35
2025-12-03T13:52:12.146;599627847741017472;3907.496;-32
2025-12-03T13:52:12.154;599627847748709760;3915.1885;-30
2025-12-03T13:52:12.161;599627847756401970;3922.8809;-30
2025-12-03T13:52:12.169;599627847764093696;3930.5723;-35
2025-12-03T13:52:12.177;599627847771785472;3938.2642;-35
2025-12-03T13:52:12.184;599627847779477248;3945.9558;-35
2025-12-03T13:52:12.192;599627847787169024;3953.6477;-32
2025-12-03T13:52:12.200;599627847794860800;3961.3394;-30
2025-12-03T13:52:12.208;599627847802552704;3969.0315;-28
2025-12-03T13:52:12.215;599627847810244480;3976.7231;-28
2025-12-03T13:52:12.223;599627847817936256;3984.415;-30
2025-12-03T13:52:12.231;599627847825628032;3992.1067;-28
2025-12-03T13:52:12.238;599627847833319808;3999.7986;-25
2025-12-03T13:52:12.246;599627847841011584;4007.4902;-25
2025-12-03T13:52:12.254;599627847848703360;4015.1821;-25
2025-12-03T13:52:12.261;599627847856395136;4022.8738;-32
2025-12-03T13:52:12.269;599627847864086912;4030.5657;-44
2025-12-03T13:52:12.277;599627847871778816;4038.2576;-44
2025-12-03T13:52:12.284;599627847879470592;4045.9495;-35
2025-12-03T13:52:12.292;599627847887162368;4053.641;-32
2025-12-03T13:52:12.300;599627847894854144;4061.333;-32
2025-12-03T13:52:12.308;599627847902545920;4069.0247;-30
2025-12-03T13:52:12.315;599627847910237696;4076.7166;-30
2025-12-03T13:52:12.323;599627847917929472;4084.4082;-30
2025-12-03T13:52:12.331;599627847925621248;4092.1;-25
2025-12-03T13:52:12.338;599627847933313024;4099.792;-23
2025-12-03T13:52:12.346;599627847941004928;4107.484;-23
2025-12-03T13:52:12.354;599627847948696704;4115.1753;-23
2025-12-03T13:52:12.361;599627847956388480;4122.867;-23
2025-12-03T13:52:12.369;599627847964080256;4130.559;-25
2025-12-03T13:52:12.377;599627847971772032;4138.251;-23
2025-12-03T13:52:12.384;599627847979463808;4145.9424;-18
2025-12-03T13:52:12.392;599627847987155584;4153.6343;-16
2025-12-03T13:52:12.400;599627847994847360;4161.326;-14
2025-12-03T13:52:12.408;599627848002539136;4169.018;-16
2025-12-03T13:52:12.415;599627848010231040;4176.7095;-18
2025-12-03T13:52:12.423;599627848017922816;4184.4014;-16
2025-12-03T13:52:12.431;599627848025614592;4192.0933;-11
2025-12-03T13:52:12.438;599627848033306368;4199.785;-14
2025-12-03T13:52:12.446;599627848040998144;4207.4766;-23
2025-12-03T13:52:12.454;599627848048689920;4215.1685;-25
2025-12-03T13:52:12.461;599627848056381696;4222.8604;-23
2025-12-03T13:52:12.469;599627848064073472;4230.5522;-23
2025-12-03T13:52:12.477;599627848071765248;4238.2437;-23
2025-12-03T13:52:12.484;599627848079457152;4245.936;-23
2025-12-03T13:52:12.492;599627848087148928;4253.6274;-28
2025-12-03T13:52:12.500;599627848094840704;4261.3193;-28
2025-12-03T13:52:12.508;599627848102532480;4269.011;-21
2025-12-03T13:52:12.515;599627848110224256;4276.703;-11
2025-12-03T13:52:12.523;599627848117916032;4284.3945;0
2025-12-03T13:52:12.531;599627848125607808;4292.0864;2
2025-12-03T13:52:12.538;599627848133299584;4299.778;4
2025-12-03T13:52:12.546;599627848140991360;4307.47;11
2025-12-03T13:52:12.554;599627848148683264;4315.162;9
2025-12-03T13:52:12.561;599627848156375040;4322.854;4
2025-12-03T13:52:12.569;599627848164066816;4330.546;4
2025-12-03T13:52:12.577;599627848171758592;4338.2373;2
2025-12-03T13:52:12.584;599627848179450368;4345.929;-7
2025-12-03T13:52:12.592;599627848187142144;4353.621;-9
2025-12-03T13:52:12.600;599627848194833920;4361.313;-9
2025-12-03T13:52:12.608;599627848202525696;4369.0044;-11
2025-12-03T13:52:12.615;599627848210217472;4376.6963;16
2025-12-03T13:52:12.623;599627848217909376;4384.388;112
2025-12-03T13:52:12.631;599627848225601152;4392.08;322
2025-12-03T13:52:12.638;599627848233292928;4399.7715;658
2025-12-03T13:52:12.646;599627848240984704;4407.4634;966
2025-12-03T13:52:12.654;599627848248676480;4415.1553;922
2025-12-03T13:52:12.661;599627848256368256;4422.847;359
2025-12-03T13:52:12.669;599627848264060032;4430.5386;-205
2025-12-03T13:52:12.677;599627848271751808;4438.2305;-217
2025-12-03T13:52:12.684;599627848279443584;4445.9224;-56
2025-12-03T13:52:12.692;599627848287135488;4453.6143;-116
2025-12-03T13:52:12.700;599627848294827264;4461.3057;-149
2025-12-03T13:52:12.707;599627848302519040;4468.9976;-91
2025-12-03T13:52:12.715;599627848310210816;4476.6895;-93
2025-12-03T13:52:12.723;599627848317902652;4484.3813;-102
2025-12-03T13:52:12.731;599627848325594624;4492.073;-72
2025-12-03T13:52:12.738;599627848333286656;4499.765;-65
2025-12-03T13:52:12.746;599627848340978560;4507.4575;-70
2025-12-03T13:52:12.754;599627848348670592;4515.1494;-60
2025-12-03T13:52:12.761;599627848356362624;4522.8413;-53
2025-12-03T13:52:12.769;599627848364054656;4530.533;-51
2025-12-03T13:52:12.777;599627848371746560;4538.225;-42
2025-12-03T13:52:12.784;599627848379438592;4545.9175;-32
2025-12-03T13:52:12.792;599627848387130624;4553.6094;-25
2025-12-03T13:52:12.800;599627848394822656;4561.3013;-28
2025-12-03T13:52:12.807;599627848402514560;4568.993;-42
2025-12-03T13:52:12.815;599627848410206592;4576.685;-49
2025-12-03T13:52:12.823;599627848417898624;4584.3774;-37
2025-12-03T13:52:12.831;599627848425590656;4592.07;-25
2025-12-03T13:52:12.838;599627848433282560;4599.761;-21
2025-12-03T13:52:12.846;599627848440974592;4607.453;-14
2025-12-03T13:52:12.854;599627848448666624;4615.1455;-7
2025-12-03T13:52:12.861;599627848456358656;4622.8374;-2
2025-12-03T13:52:12.869;599627848464050560;4630.529;4
2025-12-03T13:52:12.877;599627848471742592;4638.221;11
2025-12-03T13:52:12.884;599627848479434624;4645.9136;16
2025-12-03T13:52:12.892;599627848487126656;4653.6055;9
2025-12-03T13:52:12.900;599627848494818560;4661.2974;7
2025-12-03T13:52:12.907;599627848502510592;4668.9893;14
2025-12-03T13:52:12.915;599627848510202624;4676.681;18
2025-12-03T13:52:12.923;599627848517894656;4684.3735;21
2025-12-03T13:52:12.931;599627848525586560;4692.0654;28
2025-12-03T13:52:12.938;599627848533278592;4699.7573;39
2025-12-03T13:52:12.946;599627848540970624;4707.449;44
2025-12-03T13:52:12.954;599627848548662656;4715.141;46
2025-12-03T13:52:12.961;599627848556354560;4722.8335;53
2025-12-03T13:52:12.969;599627848564046592;4730.5254;53
2025-12-03T13:52:12.977;599627848571738624;4738.2173;46
2025-12-03T13:52:12.984;599627848579430656;4745.909;42
2025-12-03T13:52:12.992;599627848587122560;4753.6016;39
2025-12-03T13:52:13.000;599627848594814592;4761.2935;37
2025-12-03T13:52:13.007;599627848602506624;4768.985;32
2025-12-03T13:52:13.015;599627848610198656;4776.6772;32
2025-12-03T13:52:13.023;599627848617890560;4784.369;37
2025-12-03T13:52:13.031;599627848625582592;4792.0615;39
2025-12-03T13:52:13.038;599627848633274624;4799.7534;39
2025-12-03T13:52:13.046;599627848640966528;4807.4453;42
2025-12-03T13:52:13.054;599627848648658560;4815.137;46
2025-12-03T13:52:13.061;599627848656350592;4822.829;53
2025-12-03T13:52:13.069;599627848664042624;4830.5215;60
2025-12-03T13:52:13.077;599627848671734528;4838.213;58
2025-12-03T13:52:13.084;599627848679426560;4845.9053;53
2025-12-03T13:52:13.092;599627848687118592;4853.597;67
2025-12-03T13:52:13.100;599627848694810624;4861.2896;95
2025-12-03T13:52:13.107;599627848702502528;4868.9814;109
2025-12-03T13:52:13.115;599627848710194560;4876.673;133
2025-12-03T13:52:13.123;599627848717886592;4884.365;193
2025-12-03T13:52:13.131;599627848725578624;4892.0576;259
2025-12-03T13:52:13.138;599627848733270528;4899.7495;270
2025-12-03T13:52:13.146;599627848740962560;4907.441;231
2025-12-03T13:52:13.154;599627848748654592;4915.1333;231
2025-12-03T13:52:13.161;599627848756346624;4922.825;333
2025-12-03T13:52:13.169;599627848764038528;4930.517;471
2025-12-03T13:52:13.177;599627848771730560;4938.2095;590
2025-12-03T13:52:13.184;599627848779422592;4945.9014;672
2025-12-03T13:52:13.192;599627848787114624;4953.5933;703
2025-12-03T13:52:13.200;599627848794806528;4961.285;731
2025-12-03T13:52:13.207;599627848802498560;4968.9775;639
2025-12-03T13:52:13.215;599627848810190592;4976.669;308
2025-12-03T13:52:13.223;599627848817882624;4984.3613;2
2025-12-03T13:52:13.231;599627848825574528;4992.053;-65
2025-12-03T13:52:13.238;599627848833266560;4999.7456;-65
2025-12-03T13:52:13.246;599627848840958592;5007.4375;-102
2025-12-03T13:52:13.254;599627848848650624;5015.129;-107
2025-12-03T13:52:13.261;599627848856342528;5022.8213;-88
2025-12-03T13:52:13.269;599627848864034560;5030.513;-91
2025-12-03T13:52:13.277;599627848871726592;5038.2056;-91
2025-12-03T13:52:13.284;599627848879418592;5045.897;-72
2025-12-03T13:52:13.292;599627848887110656;5053.5894;-60
2025-12-03T13:52:13.300;599627848894802688;5061.2812;-60
2025-12-03T13:52:13.307;599627848902494592;5068.973;-58
2025-12-03T13:52:13.315;599627848910186624;5076.6655;-49
2025-12-03T13:52:13.323;599627848917878656;5084.3574;-44
2025-12-03T13:52:13.331;599627848925570688;5092.0493;-42
2025-12-03T13:52:13.338;599627848933262592;5099.741;-37
2025-12-03T13:52:13.346;599627848940954624;5107.4336;-37
2025-12-03T13:52:13.354;599627848948646656;5115.1255;-35
2025-12-03T13:52:13.361;599627848956338688;5122.8174;-28
2025-12-03T13:52:13.369;599627848964030592;5130.5093;-32
2025-12-03T13:52:13.377;599627848971722624;5138.2017;-39
2025-12-03T13:52:13.384;599627848979414656;5145.8936;-32
2025-12-03T13:52:13.392;599627848987106688;5153.585;-25
2025-12-03T13:52:13.400;599627848994798592;5161.2773;-28
2025-12-03T13:52:13.407;599627849002490624;5168.969;-25
2025-12-03T13:52:13.415;599627849010182656;5176.6616;-21
2025-12-03T13:52:13.423;599627849017874688;5184.3535;-18
2025-12-03T13:52:13.431;599627849025566592;5192.0454;-18
2025-12-03T13:52:13.438;599627849033258624;5199.7373;-7
2025-12-03T13:52:13.446;599627849040950656;5207.429;14
2025-12-03T13:52:13.454;599627849048642688;5215.1216;23
2025-12-03T13:52:13.461;599627849056334592;5222.813;23
2025-12-03T13:52:13.469;599627849064026624;5230.5054;25
2025-12-03T13:52:13.477;599627849071718656;5238.1973;25
2025-12-03T13:52:13.484;599627849079410688;5245.8896;18
2025-12-03T13:52:13.492;599627849087102592;5253.5815;14
2025-12-03T13:52:13.500;599627849094794624;5261.273;11
2025-12-03T13:52:13.507;599627849102486656;5268.9653;14
2025-12-03T13:52:13.515;599627849110178688;5276.6577;21
2025-12-03T13:52:13.523;599627849117870592;5284.3496;16
2025-12-03T13:52:13.531;599627849125562624;5292.041;2
2025-12-03T13:52:13.538;599627849133254656;5299.7334;4
2025-12-03T13:52:13.546;599627849140946688;5307.4253;11
2025-12-03T13:52:13.554;599627849148638592;5315.117;9
2025-12-03T13:52:13.561;599627849156330624;5322.8096;14
2025-12-03T13:52:13.569;599627849164022656;5330.5015;25
2025-12-03T13:52:13.577;599627849171714688;5338.1934;25
2025-12-03T13:52:13.584;599627849179406592;5345.8853;21
2025-12-03T13:52:13.592;599627849187098624;5353.5776;14
2025-12-03T13:52:13.600;599627849194790656;5361.269;16
2025-12-03T13:52:13.607;599627849202482560;5368.961;25
2025-12-03T13:52:13.615;599627849210174592;5376.6533;30
2025-12-03T13:52:13.623;599627849217866624;5384.3457;30
2025-12-03T13:52:13.631;599627849225558656;5392.0376;37
2025-12-03T13:52:13.638;599627849233250560;5399.729;42
2025-12-03T13:52:13.646;599627849240942592;5407.4214;42
2025-12-03T13:52:13.654;599627849248634624;5415.1133;42
2025-12-03T13:52:13.661;599627849256326656;5422.8057;35
2025-12-03T13:52:13.669;599627849264018560;5430.497;37
2025-12-03T13:52:13.677;599627849271710592;5438.1895;46
2025-12-03T13:52:13.684;599627849279402624;5445.8813;37
2025-12-03T13:52:13.692;599627849287094656;5453.573;25
2025-12-03T13:52:13.700;599627849294786560;5461.2656;23
2025-12-03T13:52:13.707;599627849302478592;5468.957;25
2025-12-03T13:52:13.715;599627849310170624;5476.6494;28
2025-12-03T13:52:13.723;599627849317862656;5484.3413;25
2025-12-03T13:52:13.731;599627849325554560;5492.0337;21
2025-12-03T13:52:13.738;599627849333246592;5499.725;25
2025-12-03T13:52:13.746;599627849340938624;5507.417;23
2025-12-03T13:52:13.754;599627849348630656;5515.1094;16
2025-12-03T13:52:13.761;599627849356322560;5522.8013;16
2025-12-03T13:52:13.769;599627849364014592;5530.4937;16
2025-12-03T13:52:13.777;599627849371706624;5538.185;14
2025-12-03T13:52:13.784;599627849379398656;5545.8774;16
2025-12-03T13:52:13.792;599627849387090560;5553.5693;16
2025-12-03T13:52:13.800;599627849394782592;5561.261;11
2025-12-03T13:52:13.807;599627849402474624;5568.953;9
2025-12-03T13:52:13.815;599627849410166656;5576.6455;9
2025-12-03T13:52:13.823;599627849417858560;5584.3374;11
2025-12-03T13:52:13.831;599627849425550592;5592.0293;11
2025-12-03T13:52:13.838;599627849433242624;5599.7217;7
2025-12-03T13:52:13.846;599627849440934534;5607.413;2
2025-12-03T13:52:13.854;599627849448626304;5615.105;-2
2025-12-03T13:52:13.861;599627849456318080;5622.797;-4
2025-12-03T13:52:13.869;599627849464009856;5630.489;-2
2025-12-03T13:52:13.877;599627849471701632;5638.18;-2
2025-12-03T13:52:13.884;599627849479393408;5645.872;-18
2025-12-03T13:52:13.892;599627849487085312;5653.564;-32
2025-12-03T13:52:13.900;599627849494777088;5661.256;-30
2025-12-03T13:52:13.907;599627849502468864;5668.9473;-25
2025-12-03T13:52:13.915;599627849510160640;5676.639;-28
2025-12-03T13:52:13.923;599627849517852416;5684.331;-28
2025-12-03T13:52:13.931;599627849525544192;5692.023;-35
2025-12-03T13:52:13.938;599627849533235968;5699.7144;-37
2025-12-03T13:52:13.946;599627849540927744;5707.4062;-23
2025-12-03T13:52:13.954;599627849548619520;5715.098;-16
2025-12-03T13:52:13.961;599627849556311424;5722.79;-23
2025-12-03T13:52:13.969;599627849564003200;5730.482;-28
2025-12-03T13:52:13.977;599627849571694976;5738.1733;-25
2025-12-03T13:52:13.984;599627849579386752;5745.8657;-30
2025-12-03T13:52:13.992;599627849587078528;5753.557;-32
2025-12-03T13:52:14.000;599627849594770304;5761.2495;-30
2025-12-03T13:52:14.007;599627849602462080;5768.9404;-28
2025-12-03T13:52:14.015;599627849610153856;5776.633;-11
2025-12-03T13:52:14.023;599627849617845632;5784.324;53
2025-12-03T13:52:14.031;599627849625537536;5792.0166;219
2025-12-03T13:52:14.038;599627849633229312;5799.708;497
2025-12-03T13:52:14.046;599627849640921088;5807.4;808
2025-12-03T13:52:14.054;599627849648612864;5815.092;913
2025-12-03T13:52:14.061;599627849656304640;5822.7837;518
2025-12-03T13:52:14.069;599627849663996416;5830.475;-116
2025-12-03T13:52:14.077;599627849671688192;5838.167;-301
2025-12-03T13:52:14.084;599627849679379968;5845.859;-121
2025-12-03T13:52:14.092;599627849687071744;5853.551;-128
2025-12-03T13:52:14.100;599627849694763648;5861.242;-205
2025-12-03T13:52:14.107;599627849702455424;5868.934;-151
2025-12-03T13:52:14.115;599627849710147200;5876.626;-128
2025-12-03T13:52:14.123;599627849717838976;5884.318;-158
2025-12-03T13:52:14.131;599627849725530752;5892.0093;-144
2025-12-03T13:52:14.138;599627849733222528;5899.701;-119
2025-12-03T13:52:14.146;599627849740914304;5907.393;-123
2025-12-03T13:52:14.154;599627849748606080;5915.085;-126
2025-12-03T13:52:14.161;599627849756297856;5922.7764;-119
2025-12-03T13:52:14.169;599627849763989760;5930.4683;-114
2025-12-03T13:52:14.177;599627849771681536;5938.16;-109
2025-12-03T13:52:14.184;599627849779373312;5945.852;-95
2025-12-03T13:52:14.192;599627849787065088;5953.5435;-91
2025-12-03T13:52:14.200;599627849794756864;5961.2354;-91
2025-12-03T13:52:14.207;599627849802448640;5968.9272;-88
2025-12-03T13:52:14.215;599627849810140416;5976.619;-86
2025-12-03T13:52:14.223;599627849817832192;5984.3105;-79
2025-12-03T13:52:14.231;599627849825523968;5992.0024;-72
2025-12-03T13:52:14.238;599627849833215872;5999.695;-70
2025-12-03T13:52:14.246;599627849840907648;6007.386;-77
2025-12-03T13:52:14.254;599627849848599424;6015.0786;-79
2025-12-03T13:52:14.261;599627849856291200;6022.7695;-72
2025-12-03T13:52:14.269;599627849863982976;6030.462;-70
2025-12-03T13:52:14.277;599627849871674752;6038.1533;-70
2025-12-03T13:52:14.284;599627849879366528;6045.8457;-65
2025-12-03T13:52:14.292;599627849887058304;6053.5366;-67
2025-12-03T13:52:14.300;599627849894750080;6061.229;-74
2025-12-03T13:52:14.307;599627849902441984;6068.921;-79
2025-12-03T13:52:14.315;599627849910133760;6076.613;-79
2025-12-03T13:52:14.323;599627849917825536;6084.304;-74
2025-12-03T13:52:14.330;599627849925517312;6091.996;-79
2025-12-03T13:52:14.338;599627849933209088;6099.688;-81
2025-12-03T13:52:14.346;599627849940900864;6107.38;-77
2025-12-03T13:52:14.354;599627849948592640;6115.0713;-70
2025-12-03T13:52:14.361;599627849956284416;6122.763;-63
2025-12-03T13:52:14.369;599627849963976192;6130.455;-58
2025-12-03T13:52:14.377;599627849971668096;6138.147;-65
2025-12-03T13:52:14.384;599627849979359872;6145.8384;-72
2025-12-03T13:52:14.392;599627849987051648;6153.5303;-77
2025-12-03T13:52:14.400;599627849994743424;6161.222;-81
2025-12-03T13:52:14.407;599627850002435216;6168.914;-86
2025-12-03T13:52:14.415;599627850010127360;6176.6064;-88
2025-12-03T13:52:14.423;599627850017819520;6184.2983;-88
2025-12-03T13:52:14.430;599627850025511808;6191.9907;-88
2025-12-03T13:52:14.438;599627850033203968;6199.6826;-86
2025-12-03T13:52:14.446;599627850040896256;6207.375;-86
2025-12-03T13:52:14.454;599627850048588416;6215.067;-84
2025-12-03T13:52:14.461;599627850056280576;6222.7593;-81
2025-12-03T13:52:14.469;599627850063972864;6230.4517;-88
2025-12-03T13:52:14.477;599627850071665024;6238.1436;-93
2025-12-03T13:52:14.484;599627850079357184;6245.836;-84
2025-12-03T13:52:14.492;599627850087049472;6253.528;-79
2025-12-03T13:52:14.500;599627850094741632;6261.22;-81
2025-12-03T13:52:14.507;599627850102433920;6268.9126;-77
2025-12-03T13:52:14.515;599627850110126080;6276.605;-63
2025-12-03T13:52:14.523;599627850117818240;6284.2974;-53
2025-12-03T13:52:14.530;599627850125510528;6291.9897;-58
2025-12-03T13:52:14.538;599627850133202688;6299.681;-67
2025-12-03T13:52:14.546;599627850140894848;6307.3735;-65
2025-12-03T13:52:14.554;599627850148587136;6315.066;-65
2025-12-03T13:52:14.561;599627850156279296;6322.7583;-67
2025-12-03T13:52:14.569;599627850163971584;6330.45;-70
2025-12-03T13:52:14.577;599627850171663744;6338.142;-77
2025-12-03T13:52:14.584;599627850179355904;6345.8345;-81
2025-12-03T13:52:14.592;599627850187048192;6353.527;-84
2025-12-03T13:52:14.600;599627850194740352;6361.219;-105
2025-12-03T13:52:14.607;599627850202432512;6368.911;-114
2025-12-03T13:52:14.615;599627850210124800;6376.6035;-88
2025-12-03T13:52:14.623;599627850217816960;6384.296;-74
2025-12-03T13:52:14.630;599627850225509248;6391.9883;-95
2025-12-03T13:52:14.638;599627850233201408;6399.68;-100
2025-12-03T13:52:14.646;599627850240893568;6407.372;-86
2025-12-03T13:52:14.654;599627850248585856;6415.0645;-93
2025-12-03T13:52:14.661;599627850256278016;6422.757;-102
2025-12-03T13:52:14.669;599627850263970176;6430.4487;-91
2025-12-03T13:52:14.677;599627850271662464;6438.141;-79
2025-12-03T13:52:14.684;599627850279354624;6445.833;-67
2025-12-03T13:52:14.692;599627850287046912;6453.5254;-11
2025-12-03T13:52:14.700;599627850294739072;6461.218;154
2025-12-03T13:52:14.707;599627850302431232;6468.91;446
2025-12-03T13:52:14.715;599627850310123520;6476.6025;782
2025-12-03T13:52:14.723;599627850317815680;6484.2944;901
2025-12-03T13:52:14.730;599627850325507840;6491.9863;478
2025-12-03T13:52:14.738;599627850333200128;6499.6787;-177
2025-12-03T13:52:14.746;599627850340892288;6507.371;-336
2025-12-03T13:52:14.754;599627850348584576;6515.0635;-135
2025-12-03T13:52:14.761;599627850356276736;6522.7554;-140
2025-12-03T13:52:14.769;599627850363968896;6530.4473;-217
2025-12-03T13:52:14.777;599627850371661184;6538.1396;-165
2025-12-03T13:52:14.784;599627850379353344;6545.832;-144
2025-12-03T13:52:14.792;599627850387045504;6553.5244;-165
2025-12-03T13:52:14.800;599627850394737792;6561.2163;-147
2025-12-03T13:52:14.807;599627850402429952;6568.9087;-126
2025-12-03T13:52:14.815;599627850410122240;6576.601;-128
2025-12-03T13:52:14.823;599627850417814400;6584.2935;-123
2025-12-03T13:52:14.830;599627850425506560;6591.9854;-123
2025-12-03T13:52:14.838;599627850433198848;6599.6772;-126
2025-12-03T13:52:14.846;599627850440891008;6607.3696;-116
2025-12-03T13:52:14.854;599627850448583168;6615.062;-105
2025-12-03T13:52:14.861;599627850456275456;6622.7544;-93
2025-12-03T13:52:14.869;599627850463967616;6630.4463;-86
2025-12-03T13:52:14.877;599627850471659904;6638.138;-81
2025-12-03T13:52:14.884;599627850479352064;6645.8306;-81
2025-12-03T13:52:14.892;599627850487044224;6653.523;-72
2025-12-03T13:52:14.900;599627850494736512;6661.2153;-53
2025-12-03T13:52:14.907;599627850502428672;6668.9077;-53
2025-12-03T13:52:14.915;599627850510120832;6676.5996;-60
2025-12-03T13:52:14.923;599627850517813120;6684.292;-51
2025-12-03T13:52:14.930;599627850525505280;6691.984;-39
2025-12-03T13:52:14.938;599627850533197568;6699.6763;-39
2025-12-03T13:52:14.946;599627850540889728;6707.3687;-35
2025-12-03T13:52:14.954;599627850548581888;6715.0605;-18
2025-12-03T13:52:14.961;599627850556274176;6722.753;-9
2025-12-03T13:52:14.969;599627850563966414;6730.4453;-18
2025-12-03T13:52:14.977;599627850571658240;6738.137;-28
2025-12-03T13:52:14.984;599627850579350016;6745.829;-35
2025-12-03T13:52:14.992;599627850587041792;6753.5205;-37
2025-12-03T13:52:15.000;599627850594733568;6761.2124;-32
2025-12-03T13:52:15.007;599627850602425344;6768.9043;-49
2025-12-03T13:52:15.015;599627850610117248;6776.596;-79
2025-12-03T13:52:15.023;599627850617809024;6784.2876;-79
2025-12-03T13:52:15.030;599627850625500800;6791.9795;-72
2025-12-03T13:52:15.038;599627850633192576;6799.6714;-91
2025-12-03T13:52:15.046;599627850640884352;6807.3633;-107
2025-12-03T13:52:15.054;599627850648576128;6815.0547;-114
2025-12-03T13:52:15.061;599627850656267904;6822.7466;-123
2025-12-03T13:52:15.069;599627850663959680;6830.4385;-128
2025-12-03T13:52:15.077;599627850671651456;6838.1304;-130
2025-12-03T13:52:15.084;599627850679343360;6845.822;-137
2025-12-03T13:52:15.092;599627850687035136;6853.5137;-133
2025-12-03T13:52:15.100;599627850694726912;6861.2056;-126
2025-12-03T13:52:15.107;599627850702418688;6868.8975;-126
2025-12-03T13:52:15.115;599627850710110464;6876.589;-128
2025-12-03T13:52:15.123;599627850717802240;6884.281;-121
2025-12-03T13:52:15.130;599627850725494016;6891.9727;-116
2025-12-03T13:52:15.138;599627850733185792;6899.6646;-116
2025-12-03T13:52:15.146;599627850740877568;6907.356;-109
2025-12-03T13:52:15.154;599627850748569472;6915.0483;-95
2025-12-03T13:52:15.161;599627850756261248;6922.7397;-81
2025-12-03T13:52:15.169;599627850763953024;6930.432;-79
2025-12-03T13:52:15.177;599627850771644800;6938.123;-77
2025-12-03T13:52:15.184;599627850779336576;6945.8154;-70
2025-12-03T13:52:15.192;599627850787028352;6953.507;-65
2025-12-03T13:52:15.200;599627850794720128;6961.199;-60
2025-12-03T13:52:15.207;599627850802411904;6968.89;-58
2025-12-03T13:52:15.215;599627850810103680;6976.5825;-60
2025-12-03T13:52:15.223;599627850817795584;6984.2744;-65
2025-12-03T13:52:15.230;599627850825487360;6991.9663;-70
2025-12-03T13:52:15.238;599627850833179136;6999.658;-70
2025-12-03T13:52:15.246;599627850840870912;7007.3496;-63
2025-12-03T13:52:15.254;599627850848562688;7015.0415;-56
2025-12-03T13:52:15.261;599627850856254464;7022.7334;-46
2025-12-03T13:52:15.269;599627850863946240;7030.4253;-56
2025-12-03T13:52:15.277;599627850871638016;7038.1167;-70
2025-12-03T13:52:15.284;599627850879329792;7045.8086;-67
2025-12-03T13:52:15.292;599627850887021696;7053.5005;-65
2025-12-03T13:52:15.300;599627850894713472;7061.1924;-74
2025-12-03T13:52:15.307;599627850902405248;7068.884;-65
2025-12-03T13:52:15.315;599627850910097024;7076.5757;-46
2025-12-03T13:52:15.323;599627850917788800;7084.2676;-58
2025-12-03T13:52:15.330;599627850925480576;7091.9595;-67
2025-12-03T13:52:15.338;599627850933172352;7099.651;-49
2025-12-03T13:52:15.346;599627850940864128;7107.343;-44
2025-12-03T13:52:15.354;599627850948555904;7115.0347;-51
2025-12-03T13:52:15.361;599627850956247808;7122.7266;-44
2025-12-03T13:52:15.369;599627850963939584;7130.418;-49
2025-12-03T13:52:15.377;599627850971631360;7138.11;-60
2025-12-03T13:52:15.384;599627850979323136;7145.802;-56
2025-12-03T13:52:15.392;599627850987014912;7153.4937;-42
2025-12-03T13:52:15.400;599627850994706688;7161.185;-44
2025-12-03T13:52:15.407;599627851002398464;7168.877;-42
2025-12-03T13:52:15.415;599627851010090240;7176.569;-2
2025-12-03T13:52:15.423;599627851017782016;7184.2607;116
2025-12-03T13:52:15.430;599627851025473920;7191.952;369
2025-12-03T13:52:15.438;599627851033165696;7199.6445;728
2025-12-03T13:52:15.446;599627851040857472;7207.336;978
2025-12-03T13:52:15.454;599627851048549248;7215.0283;761
2025-12-03T13:52:15.461;599627851056241024;7222.7197;109
2025-12-03T13:52:15.469;599627851063932800;7230.4116;-303
2025-12-03T13:52:15.477;599627851071624576;7238.103;-193
2025-12-03T13:52:15.484;599627851079316352;7245.7954;-77
2025-12-03T13:52:15.492;599627851087008128;7253.487;-137
2025-12-03T13:52:15.500;599627851094700032;7261.1787;-133
2025-12-03T13:52:15.507;599627851102391808;7268.8706;-93
2025-12-03T13:52:15.515;599627851110083584;7276.5625;-109
2025-12-03T13:52:15.523;599627851117775360;7284.2544;-114
2025-12-03T13:52:15.530;599627851125467098;7291.946;-86
2025-12-03T13:52:15.538;599627851133158912;7299.6377;-86
2025-12-03T13:52:15.546;599627851140850688;7307.3296;-95
2025-12-03T13:52:15.554;599627851148542464;7315.0215;-77
2025-12-03T13:52:15.561;599627851156234240;7322.713;-56
2025-12-03T13:52:15.569;599627851163926016;7330.405;-44
2025-12-03T13:52:15.577;599627851171617920;7338.0967;-53
2025-12-03T13:52:15.584;599627851179309696;7345.7886;-58
2025-12-03T13:52:15.592;599627851187001472;7353.48;-42
2025-12-03T13:52:15.600;599627851194693248;7361.172;-37
2025-12-03T13:52:15.607;599627851202385024;7368.864;-44
2025-12-03T13:52:15.615;599627851210076800;7376.5557;-35
2025-12-03T13:52:15.623;599627851217768576;7384.247;-30
2025-12-03T13:52:15.630;599627851225460352;7391.939;-25
2025-12-03T13:52:15.638;599627851233152128;7399.631;-25
2025-12-03T13:52:15.646;599627851240844032;7407.3228;-18
2025-12-03T13:52:15.654;599627851248535808;7415.014;-7
2025-12-03T13:52:15.661;599627851256227584;7422.706;-7
2025-12-03T13:52:15.669;599627851263919360;7430.398;2
2025-12-03T13:52:15.677;599627851271611136;7438.09;9
2025-12-03T13:52:15.684;599627851279302912;7445.7817;-14
2025-12-03T13:52:15.692;599627851286994688;7453.473;-30
2025-12-03T13:52:15.700;599627851294686464;7461.165;-25
2025-12-03T13:52:15.707;599627851302378240;7468.857;-21
2025-12-03T13:52:15.715;599627851310070144;7476.549;-25
2025-12-03T13:52:15.723;599627851317761920;7484.2407;-32
2025-12-03T13:52:15.730;599627851325453696;7491.932;-28
2025-12-03T13:52:15.738;599627851333145472;7499.6245;-25
2025-12-03T13:52:15.746;599627851340837248;7507.316;-32
2025-12-03T13:52:15.754;599627851348529024;7515.008;-30
2025-12-03T13:52:15.761;599627851356220800;7522.699;-37
2025-12-03T13:52:15.769;599627851363912576;7530.3916;-44
2025-12-03T13:52:15.777;599627851371604352;7538.083;-53
2025-12-03T13:52:15.784;599627851379296256;7545.775;-67
2025-12-03T13:52:15.792;599627851386988032;7553.467;-67
2025-12-03T13:52:15.800;599627851394679808;7561.1587;-67
2025-12-03T13:52:15.807;599627851402371584;7568.8506;-72
2025-12-03T13:52:15.815;599627851410063360;7576.542;-74
2025-12-03T13:52:15.823;599627851417755136;7584.234;-77
2025-12-03T13:52:15.830;599627851425446912;7591.926;-72
2025-12-03T13:52:15.838;599627851433138688;7599.6177;-67
2025-12-03T13:52:15.846;599627851440830464;7607.309;-63
2025-12-03T13:52:15.854;599627851448522368;7615.001;-56
2025-12-03T13:52:15.861;599627851456214144;7622.693;-58
2025-12-03T13:52:15.869;599627851463905920;7630.385;-51
2025-12-03T13:52:15.877;599627851471597696;7638.076;-44
2025-12-03T13:52:15.884;599627851479289472;7645.768;-42
2025-12-03T13:52:15.892;599627851486981248;7653.46;-32
2025-12-03T13:52:15.900;599627851494673024;7661.152;-28
2025-12-03T13:52:15.907;599627851502364800;7668.8438;-28
2025-12-03T13:52:15.915;599627851510056576;7676.535;-21
2025-12-03T13:52:15.923;599627851517748480;7684.227;-23
2025-12-03T13:52:15.930;599627851525440256;7691.919;-23
2025-12-03T13:52:15.938;599627851533132032;7699.611;-18
2025-12-03T13:52:15.946;599627851540823808;7707.3022;-14
2025-12-03T13:52:15.953;599627851548515584;7714.994;-9
2025-12-03T13:52:15.961;599627851556207360;7722.686;-16
2025-12-03T13:52:15.969;599627851563899136;7730.378;-16
2025-12-03T13:52:15.977;599627851571590912;7738.0693;-9
2025-12-03T13:52:15.984;599627851579282688;7745.761;-7
2025-12-03T13:52:15.992;599627851586974592;7753.4536;-9
2025-12-03T13:52:16.000;599627851594666368;7761.145;-23
2025-12-03T13:52:16.007;599627851602358144;7768.837;-30
2025-12-03T13:52:16.015;599627851610049920;7776.5283;-21
2025-12-03T13:52:16.023;599627851617741696;7784.2207;-21
2025-12-03T13:52:16.030;599627851625433472;7791.912;-21
2025-12-03T13:52:16.038;599627851633125248;7799.604;-18
2025-12-03T13:52:16.046;599627851640817024;7807.2954;-23
2025-12-03T13:52:16.053;599627851648508800;7814.988;-25
2025-12-03T13:52:16.061;599627851656200704;7822.6797;-32
2025-12-03T13:52:16.069;599627851663892480;7830.371;-25
2025-12-03T13:52:16.077;599627851671584256;7838.063;-7
2025-12-03T13:52:16.084;599627851679276032;7845.755;2
2025-12-03T13:52:16.092;599627851686967780;7853.447;4
2025-12-03T13:52:16.100;599627851694659968;7861.1387;7
2025-12-03T13:52:16.107;599627851702352128;7868.8306;11
2025-12-03T13:52:16.115;599627851710044416;7876.523;9
2025-12-03T13:52:16.123;599627851717736576;7884.2153;-2
2025-12-03T13:52:16.130;599627851725428864;7891.9077;2
2025-12-03T13:52:16.138;599627851733121024;7899.6;7
2025-12-03T13:52:16.146;599627851740813184;7907.292;2
2025-12-03T13:52:16.153;599627851748505472;7914.9844;7
2025-12-03T13:52:16.161;599627851756197632;7922.6763;4
2025-12-03T13:52:16.169;599627851763889792;7930.3687;11
2025-12-03T13:52:16.177;599627851771582080;7938.061;16
2025-12-03T13:52:16.184;599627851779274240;7945.753;51
2025-12-03T13:52:16.192;599627851786966528;7953.4453;200
2025-12-03T13:52:16.200;599627851794658688;7961.137;497
2025-12-03T13:52:16.207;599627851802350848;7968.8296;868
2025-12-03T13:52:16.215;599627851810043136;7976.5215;1053
2025-12-03T13:52:16.223;599627851817735296;7984.214;698
2025-12-03T13:52:16.230;599627851825427456;7991.9062;14
2025-12-03T13:52:16.238;599627851833119744;7999.5986;-270
2025-12-03T13:52:16.246;599627851840811904;8007.291;-98
2025-12-03T13:52:16.253;599627851848504192;8014.9834;-37
2025-12-03T13:52:16.261;599627851856196352;8022.675;-114
2025-12-03T13:52:16.269;599627851863888512;8030.367;-81
2025-12-03T13:52:16.277;599627851871580800;8038.0596;-44
2025-12-03T13:52:16.284;599627851879272960;8045.752;-65
2025-12-03T13:52:16.292;599627851886965120;8053.4434;-49
2025-12-03T13:52:16.300;599627851894657408;8061.1357;-28
2025-12-03T13:52:16.307;599627851902349568;8068.828;-30
2025-12-03T13:52:16.315;599627851910041856;8076.5205;-21
2025-12-03T13:52:16.323;599627851917734016;8084.213;-11
2025-12-03T13:52:16.330;599627851925426176;8091.905;-2
2025-12-03T13:52:16.338;599627851933118464;8099.597;4
2025-12-03T13:52:16.346;599627851940810624;8107.2896;4
2025-12-03T13:52:16.353;599627851948502784;8114.9814;11
2025-12-03T13:52:16.361;599627851956195072;8122.674;7
2025-12-03T13:52:16.369;599627851963887232;8130.3657;11
2025-12-03T13:52:16.377;599627851971579520;8138.058;28
2025-12-03T13:52:16.384;599627851979271680;8145.7505;28
2025-12-03T13:52:16.392;599627851986963840;8153.4424;35
2025-12-03T13:52:16.400;599627851994656128;8161.135;46
2025-12-03T13:52:16.407;599627852002348288;8168.8267;51
2025-12-03T13:52:16.415;599627852010040448;8176.519;60
2025-12-03T13:52:16.423;599627852017732736;8184.2114;70
2025-12-03T13:52:16.430;599627852025424896;8191.904;74
2025-12-03T13:52:16.438;599627852033117184;8199.596;77
2025-12-03T13:52:16.446;599627852040809344;8207.288;81
2025-12-03T13:52:16.453;599627852048501504;8214.98;88
2025-12-03T13:52:16.461;599627852056193792;8222.673;86
2025-12-03T13:52:16.469;599627852063885952;8230.364;86
2025-12-03T13:52:16.477;599627852071578112;8238.057;91
2025-12-03T13:52:16.484;599627852079270400;8245.749;88
2025-12-03T13:52:16.492;599627852086962560;8253.441;91
2025-12-03T13:52:16.500;599627852094654848;8261.134;84
2025-12-03T13:52:16.507;599627852102347008;8268.825;81
2025-12-03T13:52:16.515;599627852110039168;8276.518;86
2025-12-03T13:52:16.523;599627852117731456;8284.21;74
2025-12-03T13:52:16.530;599627852125423616;8291.902;65
2025-12-03T13:52:16.538;599627852133115776;8299.595;58
2025-12-03T13:52:16.546;599627852140808064;8307.287;46
2025-12-03T13:52:16.553;599627852148500224;8314.979;37
2025-12-03T13:52:16.561;599627852156192512;8322.671;30
2025-12-03T13:52:16.569;599627852163884672;8330.363;28
2025-12-03T13:52:16.577;599627852171576832;8338.056;28
2025-12-03T13:52:16.584;599627852179269120;8345.748;28
2025-12-03T13:52:16.592;599627852186961280;8353.439;32
2025-12-03T13:52:16.600;599627852194653440;8361.132;32
2025-12-03T13:52:16.607;599627852202345728;8368.824;35
2025-12-03T13:52:16.615;599627852210037888;8376.517;30
2025-12-03T13:52:16.623;599627852217730176;8384.209;16
2025-12-03T13:52:16.630;599627852225422336;8391.901;18
2025-12-03T13:52:16.638;599627852233114496;8399.594;25
2025-12-03T13:52:16.646;599627852240806784;8407.286;25
2025-12-03T13:52:16.653;599627852248498980;8414.978;35
2025-12-03T13:52:16.661;599627852256190720;8422.669;42
2025-12-03T13:52:16.669;599627852263882496;8430.361;44
2025-12-03T13:52:16.677;599627852271574272;8438.053;42
2025-12-03T13:52:16.684;599627852279266048;8445.745;42
2025-12-03T13:52:16.692;599627852286957824;8453.437;53
2025-12-03T13:52:16.700;599627852294649728;8461.129;49
2025-12-03T13:52:16.707;599627852302341504;8468.82;39
2025-12-03T13:52:16.715;599627852310033280;8476.513;30
2025-12-03T13:52:16.723;599627852317725056;8484.203;7
2025-12-03T13:52:16.730;599627852325416832;8491.8955;2
2025-12-03T13:52:16.738;599627852333108608;8499.587;16
2025-12-03T13:52:16.746;599627852340800384;8507.279;18
2025-12-03T13:52:16.753;599627852348492160;8514.971;16
2025-12-03T13:52:16.761;599627852356183936;8522.663;7
2025-12-03T13:52:16.769;599627852363875840;8530.3545;7
2025-12-03T13:52:16.777;599627852371567616;8538.047;7
2025-12-03T13:52:16.784;599627852379259392;8545.738;0
2025-12-03T13:52:16.792;599627852386951168;8553.43;-2
2025-12-03T13:52:16.800;599627852394642944;8561.122;0
2025-12-03T13:52:16.807;599627852402334720;8568.813;0
2025-12-03T13:52:16.815;599627852410026496;8576.505;-2
2025-12-03T13:52:16.823;599627852417718272;8584.197;-7
2025-12-03T13:52:16.830;599627852425410048;8591.889;2
2025-12-03T13:52:16.838;599627852433101952;8599.581;0
2025-12-03T13:52:16.846;599627852440793728;8607.273;-21
2025-12-03T13:52:16.853;599627852448485504;8614.964;-23
2025-12-03T13:52:16.861;599627852456177280;8622.655;-21
2025-12-03T13:52:16.869;599627852463869056;8630.348;-11
2025-12-03T13:52:16.877;599627852471560832;8638.04;9
2025-12-03T13:52:16.884;599627852479252608;8645.731;11
2025-12-03T13:52:16.892;599627852486944384;8653.423;-2
2025-12-03T13:52:16.900;599627852494636160;8661.115;-9
2025-12-03T13:52:16.907;599627852502328064;8668.808;-4
2025-12-03T13:52:16.915;599627852510019840;8676.498;-7
2025-12-03T13:52:16.923;599627852517711616;8684.19;-14
2025-12-03T13:52:16.930;599627852525403392;8691.882;-7
2025-12-03T13:52:16.938;599627852533095168;8699.574;-9
2025-12-03T13:52:16.946;599627852540786944;8707.266;-23
2025-12-03T13:52:16.953;599627852548478720;8714.958;-18
2025-12-03T13:52:16.961;599627852556170496;8722.649;-14
2025-12-03T13:52:16.969;599627852563862272;8730.342;-18
2025-12-03T13:52:16.977;599627852571554176;8738.032;0
2025-12-03T13:52:16.984;599627852579245952;8745.725;77
2025-12-03T13:52:16.992;599627852586937728;8753.416;261
2025-12-03T13:52:17.000;599627852594629504;8761.108;560
2025-12-03T13:52:17.007;599627852602321280;8768.8;875
2025-12-03T13:52:17.015;599627852610013056;8776.492;910
2025-12-03T13:52:17.023;599627852617704832;8784.184;394
2025-12-03T13:52:17.030;599627852625396608;8791.876;-217
2025-12-03T13:52:17.038;599627852633088384;8799.566;-277
2025-12-03T13:52:17.046;599627852640780288;8807.259;-93
2025-12-03T13:52:17.053;599627852648472064;8814.95;-128
2025-12-03T13:52:17.061;599627852656163840;8822.643;-182
2025-12-03T13:52:17.069;599627852663855616;8830.334;-128
2025-12-03T13:52:17.077;599627852671547392;8838.026;-130
2025-12-03T13:52:17.084;599627852679239168;8845.718;-165
2025-12-03T13:52:17.092;599627852686930944;8853.41;-140
2025-12-03T13:52:17.100;599627852694622720;8861.101;-121
2025-12-03T13:52:17.107;599627852702314496;8868.793;-128
2025-12-03T13:52:17.115;599627852710006400;8876.484;-119
2025-12-03T13:52:17.123;599627852717698176;8884.177;-112
2025-12-03T13:52:17.130;599627852725389952;8891.869;-116
2025-12-03T13:52:17.138;599627852733081728;8899.561;-114
2025-12-03T13:52:17.146;599627852740773504;8907.252;-100
2025-12-03T13:52:17.153;599627852748465280;8914.944;-81
2025-12-03T13:52:17.161;599627852756157056;8922.637;-86
2025-12-03T13:52:17.169;599627852763848832;8930.327;-95
2025-12-03T13:52:17.177;599627852771540608;8938.019;-91
2025-12-03T13:52:17.184;599627852779232512;8945.711;-84
2025-12-03T13:52:17.192;599627852786924288;8953.403;-72
2025-12-03T13:52:17.200;599627852794616064;8961.095;-60
2025-12-03T13:52:17.207;599627852802307840;8968.787;-58
2025-12-03T13:52:17.215;599627852809999662;8976.479;-60
2025-12-03T13:52:17.223;599627852817691392;8984.171;-65
2025-12-03T13:52:17.230;599627852825383168;8991.861;-56
2025-12-03T13:52:17.238;599627852833074944;8999.554;-51
2025-12-03T13:52:17.246;599627852840766720;9007.245;-53
2025-12-03T13:52:17.253;599627852848458496;9014.9375;-49
2025-12-03T13:52:17.261;599627852856150400;9022.629;-60
2025-12-03T13:52:17.269;599627852863842176;9030.321;-70
2025-12-03T13:52:17.277;599627852871533952;9038.013;-67
2025-12-03T13:52:17.284;599627852879225728;9045.705;-77
2025-12-03T13:52:17.292;599627852886917504;9053.3955;-84
2025-12-03T13:52:17.300;599627852894609280;9061.088;-84
2025-12-03T13:52:17.307;599627852902301056;9068.779;-88
2025-12-03T13:52:17.315;599627852909992832;9076.472;-86
2025-12-03T13:52:17.323;599627852917684608;9084.163;-91
2025-12-03T13:52:17.330;599627852925376512;9091.855;-91
2025-12-03T13:52:17.338;599627852933068288;9099.547;-95
2025-12-03T13:52:17.346;599627852940760064;9107.239;-112
2025-12-03T13:52:17.353;599627852948451840;9114.931;-123
2025-12-03T13:52:17.361;599627852956143616;9122.622;-126
2025-12-03T13:52:17.369;599627852963835392;9130.313;-126
2025-12-03T13:52:17.377;599627852971527168;9138.006;-126
2025-12-03T13:52:17.384;599627852979218944;9145.697;-133
2025-12-03T13:52:17.392;599627852986910720;9153.39;-130
2025-12-03T13:52:17.400;599627852994602624;9161.081;-128
2025-12-03T13:52:17.407;599627853002294400;9168.773;-135
2025-12-03T13:52:17.415;599627853009986176;9176.466;-135
2025-12-03T13:52:17.423;599627853017677952;9184.156;-133
2025-12-03T13:52:17.430;599627853025369728;9191.848;-119
2025-12-03T13:52:17.438;599627853033061504;9199.54;-105
2025-12-03T13:52:17.446;599627853040753280;9207.232;-98
2025-12-03T13:52:17.453;599627853048445056;9214.924;-65
2025-12-03T13:52:17.461;599627853056136832;9222.615;-4
2025-12-03T13:52:17.469;599627853063828736;9230.308;70
2025-12-03T13:52:17.476;599627853071520512;9238.0;95
2025-12-03T13:52:17.484;599627853079212288;9245.69;39
2025-12-03T13:52:17.492;599627853086904064;9253.383;37
2025-12-03T13:52:17.500;599627853094595840;9261.074;175
2025-12-03T13:52:17.507;599627853102287616;9268.767;362
2025-12-03T13:52:17.515;599627853109979392;9276.458;518
2025-12-03T13:52:17.523;599627853117671168;9284.15;618
2025-12-03T13:52:17.530;599627853125362944;9291.842;674
2025-12-03T13:52:17.538;599627853133054848;9299.534;653
2025-12-03T13:52:17.546;599627853140746624;9307.225;441
2025-12-03T13:52:17.553;599627853148438400;9314.917;56
2025-12-03T13:52:17.561;599627853156130176;9322.608;-231
2025-12-03T13:52:17.569;599627853163821952;9330.301;-294
2025-12-03T13:52:17.576;599627853171513728;9337.992;-301
2025-12-03T13:52:17.584;599627853179205504;9345.685;-329
2025-12-03T13:52:17.592;599627853186897280;9353.376;-317
2025-12-03T13:52:17.600;599627853194589056;9361.068;-298
2025-12-03T13:52:17.607;599627853202280960;9368.76;-298
2025-12-03T13:52:17.615;599627853209972736;9376.451;-287
2025-12-03T13:52:17.623;599627853217664512;9384.143;-273
2025-12-03T13:52:17.630;599627853225356288;9391.835;-266
2025-12-03T13:52:17.638;599627853233048064;9399.526;-259
2025-12-03T13:52:17.646;599627853240739840;9407.219;-249
2025-12-03T13:52:17.653;599627853248431616;9414.91;-235
2025-12-03T13:52:17.661;599627853256123392;9422.603;-226
2025-12-03T13:52:17.669;599627853263815168;9430.294;-217
2025-12-03T13:52:17.676;599627853271507072;9437.985;-207
2025-12-03T13:52:17.684;599627853279198848;9445.677;-207
2025-12-03T13:52:17.692;599627853286890624;9453.369;-200
2025-12-03T13:52:17.700;599627853294582400;9461.062;-191
2025-12-03T13:52:17.707;599627853302274176;9468.753;-189
2025-12-03T13:52:17.715;599627853309965952;9476.444;-189
2025-12-03T13:52:17.723;599627853317657728;9484.137;-196
2025-12-03T13:52:17.730;599627853325349504;9491.829;-198
2025-12-03T13:52:17.738;599627853333041280;9499.52;-200
2025-12-03T13:52:17.746;599627853340733184;9507.212;-205
2025-12-03T13:52:17.753;599627853348424960;9514.903;-198
2025-12-03T13:52:17.761;599627853356116736;9522.596;-196
2025-12-03T13:52:17.769;599627853363808512;9530.287;-193
2025-12-03T13:52:17.776;599627853371500344;9537.9795;-179
2025-12-03T13:52:17.784;599627853379192448;9545.671;-168
2025-12-03T13:52:17.792;599627853386884608;9553.363;-149
2025-12-03T13:52:17.800;599627853394576896;9561.056;-135
2025-12-03T13:52:17.807;599627853402269056;9568.747;-133
2025-12-03T13:52:17.815;599627853409961344;9576.439;-126
2025-12-03T13:52:17.823;599627853417653504;9584.132;-123
2025-12-03T13:52:17.830;599627853425345664;9591.824;-121
2025-12-03T13:52:17.838;599627853433037952;9599.517;-128
2025-12-03T13:52:17.846;599627853440730112;9607.209;-156
2025-12-03T13:52:17.853;599627853448422272;9614.901;-170
2025-12-03T13:52:17.861;599627853456114560;9622.594;-161
2025-12-03T13:52:17.869;599627853463806720;9630.286;-149
2025-12-03T13:52:17.876;599627853471499008;9637.979;-144
2025-12-03T13:52:17.884;599627853479191168;9645.67;-144
2025-12-03T13:52:17.892;599627853486883328;9653.361;-135
2025-12-03T13:52:17.900;599627853494575616;9661.054;-128
2025-12-03T13:52:17.907;599627853502267776;9668.746;-128
2025-12-03T13:52:17.915;599627853509959936;9676.438;-119
2025-12-03T13:52:17.923;599627853517652224;9684.131;-114
2025-12-03T13:52:17.930;599627853525344384;9691.823;-107
2025-12-03T13:52:17.938;599627853533036672;9699.516;-100
2025-12-03T13:52:17.946;599627853540728832;9707.208;-95
2025-12-03T13:52:17.953;599627853548420992;9714.9;-86
2025-12-03T13:52:17.961;599627853556113280;9722.592;-81
2025-12-03T13:52:17.969;599627853563805440;9730.284;-81
2025-12-03T13:52:17.976;599627853571497600;9737.976;-79
2025-12-03T13:52:17.984;599627853579189888;9745.668;-84
2025-12-03T13:52:17.992;599627853586882048;9753.36;-79
2025-12-03T13:52:18.000;599627853594574336;9761.053;-77
2025-12-03T13:52:18.007;599627853602266496;9768.745;-81
2025-12-03T13:52:18.015;599627853609958656;9776.4375;-79
2025-12-03T13:52:18.023;599627853617650944;9784.13;-86
2025-12-03T13:52:18.030;599627853625343104;9791.822;-88
2025-12-03T13:52:18.038;599627853633035264;9799.514;-84
2025-12-03T13:52:18.046;599627853640727552;9807.206;-88
2025-12-03T13:52:18.053;599627853648419712;9814.898;-88
2025-12-03T13:52:18.061;599627853656112000;9822.591;-88
2025-12-03T13:52:18.069;599627853663804160;9830.283;-91
2025-12-03T13:52:18.076;599627853671496320;9837.976;-81
2025-12-03T13:52:18.084;599627853679188608;9845.668;-84
2025-12-03T13:52:18.092;599627853686880768;9853.359;-81
2025-12-03T13:52:18.100;599627853694572928;9861.052;-79
2025-12-03T13:52:18.107;599627853702265216;9868.744;-77
2025-12-03T13:52:18.115;599627853709957376;9876.436;-77
2025-12-03T13:52:18.123;599627853717649664;9884.128;-81
2025-12-03T13:52:18.130;599627853725341824;9891.82;-81
2025-12-03T13:52:18.138;599627853733033984;9899.513;-86
2025-12-03T13:52:18.146;599627853740726272;9907.205;-98
2025-12-03T13:52:18.153;599627853748418432;9914.897;-93
2025-12-03T13:52:18.161;599627853756110592;9922.59;-98
2025-12-03T13:52:18.169;599627853763802880;9930.282;-107
2025-12-03T13:52:18.176;599627853771495040;9937.974;-100
2025-12-03T13:52:18.184;599627853779187328;9945.666;-93
2025-12-03T13:52:18.192;599627853786879488;9953.357;-91
2025-12-03T13:52:18.200;599627853794571648;9961.05;-88
2025-12-03T13:52:18.207;599627853802263936;9968.742;-91
2025-12-03T13:52:18.215;599627853809956096;9976.435;-86
2025-12-03T13:52:18.223;599627853817648256;9984.127;-88
2025-12-03T13:52:18.230;599627853825340544;9991.819;-86
2025-12-03T13:52:18.238;599627853833032704;9999.512;-79
2025-12-03T13:52:18.246;599627853840724992;10007.204;-79
2025-12-03T13:52:18.253;599627853848417152;10014.896;-77
2025-12-03T13:52:18.261;599627853856109312;10022.589;-77
2025-12-03T13:52:18.269;599627853863801600;10030.28;-77
2025-12-03T13:52:18.276;599627853871493760;10037.973;-79
2025-12-03T13:52:18.284;599627853879185920;10045.664;-81
2025-12-03T13:52:18.292;599627853886878208;10053.356;-74
2025-12-03T13:52:18.300;599627853894570368;10061.049;-72
2025-12-03T13:52:18.307;599627853902262656;10068.741;-70
2025-12-03T13:52:18.315;599627853909954816;10076.434;-65
2025-12-03T13:52:18.323;599627853917646976;10084.126;-70
2025-12-03T13:52:18.330;599627853925339264;10091.818;-70
2025-12-03T13:52:18.338;599627853933031544;10099.511;-67
2025-12-03T13:52:18.346;599627853940723456;10107.202;-67
2025-12-03T13:52:18.353;599627853948415360;10114.894;-63
2025-12-03T13:52:18.361;599627853956107136;10122.586;-63
2025-12-03T13:52:18.369;599627853963799040;10130.277;-60
2025-12-03T13:52:18.376;599627853971490944;10137.97;-56
2025-12-03T13:52:18.384;599627853979182720;10145.661;-70
2025-12-03T13:52:18.392;599627853986874624;10153.354;-81
2025-12-03T13:52:18.400;599627853994566528;10161.046;-74
2025-12-03T13:52:18.407;599627854002258304;10168.736;-72
2025-12-03T13:52:18.415;599627854009950208;10176.429;-70
2025-12-03T13:52:18.423;599627854017642112;10184.12;-72
2025-12-03T13:52:18.430;599627854025333888;10191.8125;-74
2025-12-03T13:52:18.438;599627854033025792;10199.505;-74
2025-12-03T13:52:18.446;599627854040717696;10207.196;-77
2025-12-03T13:52:18.453;599627854048409472;10214.889;-70
2025-12-03T13:52:18.461;599627854056101376;10222.58;-63
2025-12-03T13:52:18.469;599627854063793152;10230.272;-58
2025-12-03T13:52:18.476;599627854071485056;10237.964;-49
2025-12-03T13:52:18.484;599627854079176960;10245.655;-44
2025-12-03T13:52:18.492;599627854086868736;10253.348;-37
2025-12-03T13:52:18.500;599627854094560640;10261.039;-44
2025-12-03T13:52:18.507;599627854102252544;10268.731;-49
2025-12-03T13:52:18.515;599627854109944320;10276.423;-49
2025-12-03T13:52:18.523;599627854117636224;10284.115;-53
2025-12-03T13:52:18.530;599627854125328128;10291.808;-51
2025-12-03T13:52:18.538;599627854133019904;10299.498;-46
2025-12-03T13:52:18.546;599627854140711808;10307.19;-51
2025-12-03T13:52:18.553;599627854148403712;10314.882;-32
2025-12-03T13:52:18.561;599627854156095488;10322.574;32
2025-12-03T13:52:18.569;599627854163787392;10330.266;203
2025-12-03T13:52:18.576;599627854171479296;10337.958;523
2025-12-03T13:52:18.584;599627854179171072;10345.65;875
2025-12-03T13:52:18.592;599627854186862976;10353.342;969
2025-12-03T13:52:18.600;599627854194554880;10361.034;518
2025-12-03T13:52:18.607;599627854202246656;10368.725;-165
2025-12-03T13:52:18.615;599627854209938560;10376.417;-348
2025-12-03T13:52:18.623;599627854217630464;10384.109;-156
2025-12-03T13:52:18.630;599627854225322240;10391.801;-151
2025-12-03T13:52:18.638;599627854233014144;10399.493;-221
2025-12-03T13:52:18.646;599627854240706048;10407.185;-186
2025-12-03T13:52:18.653;599627854248397824;10414.877;-168
2025-12-03T13:52:18.661;599627854256089728;10422.569;-189
2025-12-03T13:52:18.669;599627854263781632;10430.26;-172
2025-12-03T13:52:18.676;599627854271473408;10437.952;-149
2025-12-03T13:52:18.684;599627854279165312;10445.644;-154
2025-12-03T13:52:18.692;599627854286857088;10453.336;-144
2025-12-03T13:52:18.700;599627854294548992;10461.027;-133
2025-12-03T13:52:18.707;599627854302240896;10468.72;-130
2025-12-03T13:52:18.715;599627854309932672;10476.411;-121
2025-12-03T13:52:18.723;599627854317624576;10484.104;-116
2025-12-03T13:52:18.730;599627854325316480;10491.796;-109
2025-12-03T13:52:18.738;599627854333008256;10499.486;-102
2025-12-03T13:52:18.746;599627854340700160;10507.179;-102
2025-12-03T13:52:18.753;599627854348392064;10514.87;-93
2025-12-03T13:52:18.761;599627854356083840;10522.5625;-93
2025-12-03T13:52:18.769;599627854363775744;10530.255;-95
2025-12-03T13:52:18.776;599627854371467648;10537.946;-88
2025-12-03T13:52:18.784;599627854379159424;10545.639;-88
2025-12-03T13:52:18.792;599627854386851328;10553.33;-84
2025-12-03T13:52:18.800;599627854394543232;10561.021;-77
2025-12-03T13:52:18.807;599627854402235008;10568.714;-77
2025-12-03T13:52:18.815;599627854409926912;10576.405;-74
2025-12-03T13:52:18.823;599627854417618816;10584.098;-79
2025-12-03T13:52:18.830;599627854425310592;10591.789;-86
2025-12-03T13:52:18.838;599627854433002496;10599.481;-88
2025-12-03T13:52:18.846;599627854440694400;10607.174;-93
2025-12-03T13:52:18.853;599627854448386176;10614.865;-91
2025-12-03T13:52:18.861;599627854456078080;10622.558;-88
2025-12-03T13:52:18.869;599627854463769984;10630.248;-91
2025-12-03T13:52:18.876;599627854471461760;10637.94;-93
2025-12-03T13:52:18.884;599627854479153664;10645.632;-95
2025-12-03T13:52:18.892;599627854486845568;10653.324;-81
2025-12-03T13:52:18.900;599627854494537312;10661.016;-70
2025-12-03T13:52:18.907;599627854502229504;10668.708;-72
2025-12-03T13:52:18.915;599627854509921664;10676.4;-70
2025-12-03T13:52:18.923;599627854517613824;10684.093;-84
2025-12-03T13:52:18.930;599627854525305856;10691.785;-98
2025-12-03T13:52:18.938;599627854532998016;10699.477;-98
2025-12-03T13:52:18.946;599627854540690176;10707.169;-95
2025-12-03T13:52:18.953;599627854548382336;10714.861;-91
2025-12-03T13:52:18.961;599627854556074496;10722.553;-93
2025-12-03T13:52:18.969;599627854563766656;10730.245;-102
2025-12-03T13:52:18.976;599627854571458688;10737.9375;-105
2025-12-03T13:52:18.984;599627854579150848;10745.63;-102
2025-12-03T13:52:18.992;599627854586843008;10753.322;-93
2025-12-03T13:52:19.000;599627854594535168;10761.015;-91
2025-12-03T13:52:19.007;599627854602227328;10768.705;-91
2025-12-03T13:52:19.015;599627854609919488;10776.397;-84
2025-12-03T13:52:19.023;599627854617611520;10784.09;-81
2025-12-03T13:52:19.030;599627854625303680;10791.782;-74
2025-12-03T13:52:19.038;599627854632995840;10799.475;-65
2025-12-03T13:52:19.046;599627854640688000;10807.167;-63
2025-12-03T13:52:19.053;599627854648380160;10814.859;-58
2025-12-03T13:52:19.061;599627854656072320;10822.552;-60
2025-12-03T13:52:19.069;599627854663764352;10830.243;-60
2025-12-03T13:52:19.076;599627854671456512;10837.936;-51
2025-12-03T13:52:19.084;599627854679148672;10845.627;-51
2025-12-03T13:52:19.092;599627854686840832;10853.319;-51
2025-12-03T13:52:19.100;599627854694532992;10861.012;-51
2025-12-03T13:52:19.107;599627854702225152;10868.704;-58
2025-12-03T13:52:19.115;599627854709917184;10876.3955;-53
2025-12-03T13:52:19.123;599627854717609344;10884.088;-53
2025-12-03T13:52:19.130;599627854725301504;10891.78;-56
2025-12-03T13:52:19.138;599627854732993664;10899.473;-51
2025-12-03T13:52:19.146;599627854740685824;10907.165;-63
2025-12-03T13:52:19.153;599627854748377984;10914.857;-67
2025-12-03T13:52:19.161;599627854756070016;10922.549;-67
2025-12-03T13:52:19.169;599627854763762176;10930.24;-67
2025-12-03T13:52:19.176;599627854771454336;10937.933;-65
2025-12-03T13:52:19.184;599627854779146496;10945.625;-67
2025-12-03T13:52:19.192;599627854786838656;10953.317;-63
2025-12-03T13:52:19.200;599627854794530816;10961.01;-53
2025-12-03T13:52:19.207;599627854802222848;10968.702;-44
2025-12-03T13:52:19.215;599627854809915008;10976.394;-37
2025-12-03T13:52:19.223;599627854817607168;10984.086;-37
2025-12-03T13:52:19.230;599627854825299328;10991.777;-32
2025-12-03T13:52:19.238;599627854832991488;10999.47;-42
2025-12-03T13:52:19.246;599627854840683648;11007.162;-60
2025-12-03T13:52:19.253;599627854848375680;11014.8545;-56
2025-12-03T13:52:19.261;599627854856067840;11022.547;-56
2025-12-03T13:52:19.269;599627854863760000;11030.239;-58
2025-12-03T13:52:19.276;599627854871452160;11037.931;-53
2025-12-03T13:52:19.284;599627854879144320;11045.623;-56
2025-12-03T13:52:19.292;599627854886836480;11053.315;-51
2025-12-03T13:52:19.300;599627854894528512;11061.008;-42
2025-12-03T13:52:19.307;599627854902220672;11068.699;2
2025-12-03T13:52:19.315;599627854909912832;11076.392;142
2025-12-03T13:52:19.323;599627854917604992;11084.083;411
2025-12-03T13:52:19.330;599627854925297152;11091.775;766
2025-12-03T13:52:19.338;599627854932989312;11099.468;962
2025-12-03T13:52:19.346;599627854940681344;11107.16;644
2025-12-03T13:52:19.353;599627854948373504;11114.853;-16
2025-12-03T13:52:19.361;599627854956065664;11122.545;-319
2025-12-03T13:52:19.369;599627854963757824;11130.237;-156
2025-12-03T13:52:19.376;599627854971449984;11137.93;-93
2025-12-03T13:52:19.384;599627854979142144;11145.62;-170
2025-12-03T13:52:19.392;599627854986834176;11153.3125;-135
2025-12-03T13:52:19.400;599627854994526336;11161.005;-95
2025-12-03T13:52:19.407;599627855002218496;11168.697;-119
2025-12-03T13:52:19.415;599627855009910656;11176.39;-105
2025-12-03T13:52:19.423;599627855017602816;11184.082;-86
2025-12-03T13:52:19.430;599627855025294976;11191.773;-86
2025-12-03T13:52:19.438;599627855032987008;11199.466;-79
2025-12-03T13:52:19.446;599627855040679168;11207.158;-72
2025-12-03T13:52:19.453;599627855048371328;11214.85;-60
2025-12-03T13:52:19.461;599627855056063426;11222.542;-58
2025-12-03T13:52:19.469;599627855063755264;11230.233;-53
2025-12-03T13:52:19.476;599627855071447040;11237.926;-46
2025-12-03T13:52:19.484;599627855079138816;11245.617;-44
2025-12-03T13:52:19.492;599627855086830592;11253.31;-35
2025-12-03T13:52:19.500;599627855094522368;11261.001;-30
2025-12-03T13:52:19.507;599627855102214272;11268.693;-35
2025-12-03T13:52:19.515;599627855109906048;11276.384;-25
2025-12-03T13:52:19.523;599627855117597824;11284.076;-23
2025-12-03T13:52:19.530;599627855125289600;11291.769;-16
2025-12-03T13:52:19.538;599627855132981376;11299.46;-7
2025-12-03T13:52:19.546;599627855140673152;11307.151;-7
2025-12-03T13:52:19.553;599627855148364928;11314.844;-9
2025-12-03T13:52:19.561;599627855156056704;11322.536;-14
2025-12-03T13:52:19.569;599627855163748480;11330.228;-9
2025-12-03T13:52:19.576;599627855171440384;11337.92;2
2025-12-03T13:52:19.584;599627855179132160;11345.61;-2
2025-12-03T13:52:19.592;599627855186823936;11353.303;-7
2025-12-03T13:52:19.599;599627855194515712;11360.994;-23
2025-12-03T13:52:19.607;599627855202207488;11368.687;-51
2025-12-03T13:52:19.615;599627855209899264;11376.378;-49
2025-12-03T13:52:19.623;599627855217591040;11384.07;-44
2025-12-03T13:52:19.630;599627855225282816;11391.762;-49
2025-12-03T13:52:19.638;599627855232974592;11399.454;-49
2025-12-03T13:52:19.646;599627855240666496;11407.145;-58
2025-12-03T13:52:19.653;599627855248358272;11414.837;-72
2025-12-03T13:52:19.661;599627855256050048;11422.528;-86
2025-12-03T13:52:19.669;599627855263741824;11430.221;-91
2025-12-03T13:52:19.676;599627855271433600;11437.912;-95
2025-12-03T13:52:19.684;599627855279125376;11445.6045;-107
2025-12-03T13:52:19.692;599627855286817152;11453.296;-107
2025-12-03T13:52:19.699;599627855294508928;11460.988;-102
2025-12-03T13:52:19.707;599627855302200704;11468.679;-107
2025-12-03T13:52:19.715;599627855309892608;11476.371;-102
2025-12-03T13:52:19.723;599627855317584384;11484.0625;-100
2025-12-03T13:52:19.730;599627855325276160;11491.755;-102
2025-12-03T13:52:19.738;599627855332967936;11499.446;-98
2025-12-03T13:52:19.746;599627855340659712;11507.139;-100
2025-12-03T13:52:19.753;599627855348351488;11514.83;-95
2025-12-03T13:52:19.761;599627855356043264;11522.522;-88
2025-12-03T13:52:19.769;599627855363735040;11530.213;-81
2025-12-03T13:52:19.776;599627855371426816;11537.905;-72
2025-12-03T13:52:19.784;599627855379118720;11545.598;-72
2025-12-03T13:52:19.792;599627855386810496;11553.289;-63
2025-12-03T13:52:19.799;599627855394502272;11560.98;-58
2025-12-03T13:52:19.807;599627855402194048;11568.673;-58
2025-12-03T13:52:19.815;599627855409885824;11576.365;-51
2025-12-03T13:52:19.823;599627855417577600;11584.057;-51
2025-12-03T13:52:19.830;599627855425269376;11591.748;-51
2025-12-03T13:52:19.838;599627855432961152;11599.439;-44
2025-12-03T13:52:19.846;599627855440652928;11607.132;-49
2025-12-03T13:52:19.853;599627855448344832;11614.823;-46
2025-12-03T13:52:19.861;599627855456036608;11622.516;-46
2025-12-03T13:52:19.869;599627855463728384;11630.207;-49
2025-12-03T13:52:19.876;599627855471420160;11637.899;-46
2025-12-03T13:52:19.884;599627855479111936;11645.591;-49
2025-12-03T13:52:19.892;599627855486803712;11653.283;-49
2025-12-03T13:52:19.899;599627855494495488;11660.974;-49
2025-12-03T13:52:19.907;599627855502187264;11668.666;-53
2025-12-03T13:52:19.915;599627855509879040;11676.357;-49
2025-12-03T13:52:19.923;599627855517570944;11684.05;-46
2025-12-03T13:52:19.930;599627855525262720;11691.741;-49
2025-12-03T13:52:19.938;599627855532954496;11699.434;-44
2025-12-03T13:52:19.946;599627855540646272;11707.125;-49
2025-12-03T13:52:19.953;599627855548338048;11714.817;-51
2025-12-03T13:52:19.961;599627855556029824;11722.508;-63
2025-12-03T13:52:19.969;599627855563721600;11730.2;-67
2025-12-03T13:52:19.976;599627855571413376;11737.892;-63
2025-12-03T13:52:19.984;599627855579105152;11745.584;-56
2025-12-03T13:52:19.992;599627855586797056;11753.275;-44
2025-12-03T13:52:19.999;599627855594488832;11760.968;-42
2025-12-03T13:52:20.007;599627855602180608;11768.659;-46
2025-12-03T13:52:20.015;599627855609872384;11776.352;-32
2025-12-03T13:52:20.023;599627855617564108;11784.043;-37
2025-12-03T13:52:20.030;599627855625256192;11791.734;-42
2025-12-03T13:52:20.038;599627855632948224;11799.427;-35
2025-12-03T13:52:20.046;599627855640640384;11807.119;-37
2025-12-03T13:52:20.053;599627855648332416;11814.812;-39
2025-12-03T13:52:20.061;599627855656024448;11822.503;-37
2025-12-03T13:52:20.069;599627855663716480;11830.195;-35
2025-12-03T13:52:20.076;599627855671408640;11837.888;-35
2025-12-03T13:52:20.084;599627855679100672;11845.58;-32
2025-12-03T13:52:20.092;599627855686792704;11853.271;11
2025-12-03T13:52:20.099;599627855694484864;11860.963;140
2025-12-03T13:52:20.107;599627855702176896;11868.655;411
2025-12-03T13:52:20.115;599627855709868928;11876.348;780
2025-12-03T13:52:20.123;599627855717560960;11884.04;962
2025-12-03T13:52:20.130;599627855725253120;11891.731;637
2025-12-03T13:52:20.138;599627855732945152;11899.424;-28
2025-12-03T13:52:20.146;599627855740637184;11907.116;-333
2025-12-03T13:52:20.153;599627855748329344;11914.809;-170
2025-12-03T13:52:20.161;599627855756021376;11922.5;-109
2025-12-03T13:52:20.169;599627855763713408;11930.191;-186
2025-12-03T13:52:20.176;599627855771405440;11937.884;-147
2025-12-03T13:52:20.184;599627855779097600;11945.576;-116
2025-12-03T13:52:20.192;599627855786789632;11953.269;-140
2025-12-03T13:52:20.199;599627855794481664;11960.96;-128
2025-12-03T13:52:20.207;599627855802173824;11968.652;-105
2025-12-03T13:52:20.215;599627855809865856;11976.345;-100
2025-12-03T13:52:20.223;599627855817557888;11984.037;-93
2025-12-03T13:52:20.230;599627855825249920;11991.729;-84
2025-12-03T13:52:20.238;599627855832942080;11999.421;-84
2025-12-03T13:52:20.246;599627855840634112;12007.112;-88
2025-12-03T13:52:20.253;599627855848326144;12014.805;-74
2025-12-03T13:52:20.261;599627855856018304;12022.497;-70
2025-12-03T13:52:20.269;599627855863710336;12030.189;-72
2025-12-03T13:52:20.276;599627855871402368;12037.881;-60
2025-12-03T13:52:20.284;599627855879094528;12045.573;-53
2025-12-03T13:52:20.292;599627855886786560;12053.266;-46
2025-12-03T13:52:20.299;599627855894478592;12060.958;-39
2025-12-03T13:52:20.307;599627855902170624;12068.649;-35
2025-12-03T13:52:20.315;599627855909862784;12076.341;-30
2025-12-03T13:52:20.323;599627855917554816;12084.033;-37
2025-12-03T13:52:20.330;599627855925246848;12091.726;-35
2025-12-03T13:52:20.338;599627855932939008;12099.418;-23
2025-12-03T13:52:20.346;599627855940631040;12107.109;-25
2025-12-03T13:52:20.353;599627855948323072;12114.802;-21
2025-12-03T13:52:20.361;599627855956015104;12122.494;-16
2025-12-03T13:52:20.369;599627855963707264;12130.187;-18
2025-12-03T13:52:20.376;599627855971399296;12137.878;-14
2025-12-03T13:52:20.384;599627855979091328;12145.569;-11
2025-12-03T13:52:20.392;599627855986783488;12153.262;-9
2025-12-03T13:52:20.399;599627855994475520;12160.954;-14
2025-12-03T13:52:20.407;599627856002167552;12168.646;-21
2025-12-03T13:52:20.415;599627856009859584;12176.338;-16
2025-12-03T13:52:20.423;599627856017551744;12184.03;-18
2025-12-03T13:52:20.430;599627856025243776;12191.723;-28
2025-12-03T13:52:20.438;599627856032935808;12199.415;-32
2025-12-03T13:52:20.446;599627856040627968;12207.107;-44
2025-12-03T13:52:20.453;599627856048320000;12214.798;-51
2025-12-03T13:52:20.461;599627856056012032;12222.49;-58
2025-12-03T13:52:20.469;599627856063704064;12230.183;-65
2025-12-03T13:52:20.476;599627856071396224;12237.875;-70
2025-12-03T13:52:20.484;599627856079088256;12245.567;-77
2025-12-03T13:52:20.492;599627856086780288;12253.259;-79
2025-12-03T13:52:20.499;599627856094472448;12260.951;-79
2025-12-03T13:52:20.507;599627856102164480;12268.644;-81
2025-12-03T13:52:20.515;599627856109856512;12276.336;-74
2025-12-03T13:52:20.523;599627856117548544;12284.027;-65
2025-12-03T13:52:20.530;599627856125240704;12291.719;-51
2025-12-03T13:52:20.538;599627856132932736;12299.411;-32
2025-12-03T13:52:20.546;599627856140624768;12307.104;-16
2025-12-03T13:52:20.553;599627856148316928;12314.796;18
2025-12-03T13:52:20.561;599627856156008960;12322.487;77
2025-12-03T13:52:20.569;599627856163700992;12330.18;135
2025-12-03T13:52:20.576;599627856171393024;12337.872;142
2025-12-03T13:52:20.584;599627856179085134;12345.564;88
2025-12-03T13:52:20.592;599627856186777088;12353.256;100
2025-12-03T13:52:20.599;599627856194468992;12360.947;238
2025-12-03T13:52:20.607;599627856202160896;12368.64;404
2025-12-03T13:52:20.615;599627856209852928;12376.331;541
2025-12-03T13:52:20.623;599627856217544832;12384.023;628
2025-12-03T13:52:20.630;599627856225236736;12391.716;672
2025-12-03T13:52:20.638;599627856232928640;12399.407;623
2025-12-03T13:52:20.646;599627856240620544;12407.1;340
2025-12-03T13:52:20.653;599627856248312576;12414.792;-49
2025-12-03T13:52:20.661;599627856256004480;12422.483;-240
2025-12-03T13:52:20.669;599627856263696384;12430.175;-249
2025-12-03T13:52:20.676;599627856271388288;12437.866;-259
2025-12-03T13:52:20.684;599627856279080192;12445.559;-284
2025-12-03T13:52:20.692;599627856286772224;12453.251;-270
2025-12-03T13:52:20.699;599627856294464128;12460.943;-254
2025-12-03T13:52:20.707;599627856302156032;12468.635;-249
2025-12-03T13:52:20.715;599627856309847936;12476.327;-231
2025-12-03T13:52:20.723;599627856317539840;12484.019;-219
2025-12-03T13:52:20.730;599627856325231872;12491.711;-212
2025-12-03T13:52:20.738;599627856332923776;12499.402;-196
2025-12-03T13:52:20.746;599627856340615680;12507.094;-186
2025-12-03T13:52:20.753;599627856348307584;12514.786;-177
2025-12-03T13:52:20.761;599627856355999488;12522.479;-165
2025-12-03T13:52:20.769;599627856363691520;12530.17;-158
2025-12-03T13:52:20.776;599627856371383424;12537.862;-147
2025-12-03T13:52:20.784;599627856379075328;12545.555;-147
2025-12-03T13:52:20.792;599627856386767232;12553.246;-142
2025-12-03T13:52:20.799;599627856394459136;12560.9375;-133
2025-12-03T13:52:20.807;599627856402151168;12568.63;-140
2025-12-03T13:52:20.815;599627856409843072;12576.321;-154
2025-12-03T13:52:20.823;599627856417534976;12584.014;-158
2025-12-03T13:52:20.830;599627856425226880;12591.706;-151
2025-12-03T13:52:20.838;599627856432918784;12599.397;-149
2025-12-03T13:52:20.846;599627856440610816;12607.09;-156
2025-12-03T13:52:20.853;599627856448302720;12614.781;-151
2025-12-03T13:52:20.861;599627856455994624;12622.474;-151
2025-12-03T13:52:20.869;599627856463686528;12630.165;-149
2025-12-03T13:52:20.876;599627856471378432;12637.856;-130
2025-12-03T13:52:20.884;599627856479070464;12645.549;-114
2025-12-03T13:52:20.892;599627856486762368;12653.241;-102
2025-12-03T13:52:20.899;599627856494454272;12660.933;-95
2025-12-03T13:52:20.907;599627856502146176;12668.625;-100
2025-12-03T13:52:20.915;599627856509838080;12676.317;-93
2025-12-03T13:52:20.923;599627856517530112;12684.009;-91
2025-12-03T13:52:20.930;599627856525222016;12691.701;-95
2025-12-03T13:52:20.938;599627856532913920;12699.393;-98
2025-12-03T13:52:20.946;599627856540605824;12707.084;-102
2025-12-03T13:52:20.953;599627856548297728;12714.776;-93
2025-12-03T13:52:20.961;599627856555989760;12722.469;-79
2025-12-03T13:52:20.969;599627856563681664;12730.16;-81
2025-12-03T13:52:20.976;599627856571373568;12737.853;-86
2025-12-03T13:52:20.984;599627856579065472;12745.544;-91
2025-12-03T13:52:20.992;599627856586757376;12753.236;-93
2025-12-03T13:52:20.999;599627856594449408;12760.929;-100
2025-12-03T13:52:21.007;599627856602141312;12768.62;-98
2025-12-03T13:52:21.015;599627856609833216;12776.312;-86
2025-12-03T13:52:21.023;599627856617525120;12784.004;-81
2025-12-03T13:52:21.030;599627856625217024;12791.695;-72
2025-12-03T13:52:21.038;599627856632909056;12799.388;-63
2025-12-03T13:52:21.046;599627856640600960;12807.08;-67
2025-12-03T13:52:21.053;599627856648292864;12814.771;-63
2025-12-03T13:52:21.061;599627856655984768;12822.464;-58
2025-12-03T13:52:21.069;599627856663676672;12830.156;-63
2025-12-03T13:52:21.076;599627856671368704;12837.847;-60
2025-12-03T13:52:21.084;599627856679060608;12845.539;-60
2025-12-03T13:52:21.092;599627856686752512;12853.231;-65
2025-12-03T13:52:21.099;599627856694444416;12860.923;-65
2025-12-03T13:52:21.107;599627856702136320;12868.615;-63
2025-12-03T13:52:21.115;599627856709828352;12876.308;-56
2025-12-03T13:52:21.122;599627856717520256;12883.999;-51
2025-12-03T13:52:21.130;599627856725212160;12891.691;-60
2025-12-03T13:52:21.138;599627856732904064;12899.383;-63
2025-12-03T13:52:21.146;599627856740595990;12907.074;-53
2025-12-03T13:52:21.153;599627856748287744;12914.767;-56
2025-12-03T13:52:21.161;599627856755979520;12922.458;-77
2025-12-03T13:52:21.169;599627856763671296;12930.15;-81
2025-12-03T13:52:21.176;599627856771363072;12937.842;-70
2025-12-03T13:52:21.184;599627856779054848;12945.534;-72
2025-12-03T13:52:21.192;599627856786746752;12953.226;-72
2025-12-03T13:52:21.199;599627856794438528;12960.918;-65
2025-12-03T13:52:21.207;599627856802130304;12968.608;-67
2025-12-03T13:52:21.215;599627856809822080;12976.301;-58
2025-12-03T13:52:21.222;599627856817513856;12983.992;-60
2025-12-03T13:52:21.230;599627856825205632;12991.685;-74
2025-12-03T13:52:21.238;599627856832897408;12999.376;-67
2025-12-03T13:52:21.246;599627856840589184;13007.068;-58
2025-12-03T13:52:21.253;599627856848280960;13014.76;-56
2025-12-03T13:52:21.261;599627856855972864;13022.452;-65
2025-12-03T13:52:21.269;599627856863664640;13030.143;-86
2025-12-03T13:52:21.276;599627856871356416;13037.835;-81
2025-12-03T13:52:21.284;599627856879048192;13045.526;-70
2025-12-03T13:52:21.292;599627856886739968;13053.219;-67
2025-12-03T13:52:21.299;599627856894431744;13060.91;-67
2025-12-03T13:52:21.307;599627856902123520;13068.603;-72
2025-12-03T13:52:21.315;599627856909815296;13076.294;-70
2025-12-03T13:52:21.322;599627856917507072;13083.986;-70
2025-12-03T13:52:21.330;599627856925198976;13091.678;-65
2025-12-03T13:52:21.338;599627856932890752;13099.369;-60
2025-12-03T13:52:21.346;599627856940582528;13107.061;-65
2025-12-03T13:52:21.353;599627856948274304;13114.753;-63
2025-12-03T13:52:21.361;599627856955966080;13122.445;-58
2025-12-03T13:52:21.369;599627856963657856;13130.137;-63
2025-12-03T13:52:21.376;599627856971349632;13137.828;-58
2025-12-03T13:52:21.384;599627856979041408;13145.5205;-53
2025-12-03T13:52:21.392;599627856986733184;13153.213;-49
2025-12-03T13:52:21.399;599627856994425088;13160.903;-49
2025-12-03T13:52:21.407;599627857002116864;13168.596;-53
2025-12-03T13:52:21.415;599627857009808640;13176.287;-46
2025-12-03T13:52:21.422;599627857017500416;13183.9795;-42
2025-12-03T13:52:21.430;599627857025192192;13191.671;-39
2025-12-03T13:52:21.438;599627857032883968;13199.363;-35
2025-12-03T13:52:21.446;599627857040575744;13207.055;-44
2025-12-03T13:52:21.453;599627857048267520;13214.747;-46
2025-12-03T13:52:21.461;599627857055959296;13222.4375;-39
2025-12-03T13:52:21.469;599627857063651200;13230.13;-37
2025-12-03T13:52:21.476;599627857071342976;13237.821;-42
2025-12-03T13:52:21.484;599627857079034752;13245.514;-60
2025-12-03T13:52:21.492;599627857086726528;13253.205;-74
2025-12-03T13:52:21.499;599627857094418304;13260.897;-74
2025-12-03T13:52:21.507;599627857102110080;13268.589;-65
2025-12-03T13:52:21.515;599627857109801856;13276.281;-49
2025-12-03T13:52:21.522;599627857117493632;13283.972;-51
2025-12-03T13:52:21.530;599627857125185408;13291.664;-44
2025-12-03T13:52:21.538;599627857132877312;13299.355;-23
2025-12-03T13:52:21.546;599627857140569088;13307.048;-35
2025-12-03T13:52:21.553;599627857148260864;13314.739;-46
2025-12-03T13:52:21.561;599627857155952640;13322.432;-46
2025-12-03T13:52:21.569;599627857163644416;13330.123;-46
2025-12-03T13:52:21.576;599627857171336192;13337.815;-42
2025-12-03T13:52:21.584;599627857179027968;13345.506;-42
2025-12-03T13:52:21.592;599627857186719744;13353.198;-35
2025-12-03T13:52:21.599;599627857194411520;13360.89;-18
2025-12-03T13:52:21.607;599627857202103424;13368.582;35
2025-12-03T13:52:21.615;599627857209795200;13376.274;186
2025-12-03T13:52:21.622;599627857217486976;13383.966;439
2025-12-03T13:52:21.630;599627857225178752;13391.657;742
2025-12-03T13:52:21.638;599627857232870528;13399.35;903
2025-12-03T13:52:21.646;599627857240562304;13407.042;586
2025-12-03T13:52:21.653;599627857248254080;13414.732;-46
2025-12-03T13:52:21.661;599627857255945856;13422.424;-301
2025-12-03T13:52:21.669;599627857263637632;13430.116;-135
2025-12-03T13:52:21.676;599627857271329536;13437.809;-105
2025-12-03T13:52:21.684;599627857279021312;13445.5;-196
2025-12-03T13:52:21.692;599627857286713088;13453.192;-158
2025-12-03T13:52:21.699;599627857294404864;13460.884;-121
2025-12-03T13:52:21.707;599627857302096672;13468.576;-151
2025-12-03T13:52:21.715;599627857309788544;13476.267;-140
2025-12-03T13:52:21.722;599627857317480448;13483.959;-114
2025-12-03T13:52:21.730;599627857325172224;13491.65;-116
2025-12-03T13:52:21.738;599627857332864128;13499.343;-114
2025-12-03T13:52:21.746;599627857340556032;13507.035;-107
2025-12-03T13:52:21.753;599627857348247808;13514.727;-105
2025-12-03T13:52:21.761;599627857355939712;13522.419;-116
2025-12-03T13:52:21.769;599627857363631616;13530.11;-128
2025-12-03T13:52:21.776;599627857371323392;13537.802;-116
2025-12-03T13:52:21.784;599627857379015296;13545.494;-107
2025-12-03T13:52:21.792;599627857386707200;13553.186;-102
2025-12-03T13:52:21.799;599627857394398976;13560.878;-91
2025-12-03T13:52:21.807;599627857402090880;13568.569;-88
2025-12-03T13:52:21.815;599627857409782784;13576.262;-77
2025-12-03T13:52:21.822;599627857417474560;13583.953;-74
2025-12-03T13:52:21.830;599627857425166464;13591.6455;-74
2025-12-03T13:52:21.838;599627857432858240;13599.337;-63
2025-12-03T13:52:21.846;599627857440550144;13607.028;-60
2025-12-03T13:52:21.853;599627857448242048;13614.721;-58
2025-12-03T13:52:21.861;599627857455933824;13622.412;-56
2025-12-03T13:52:21.869;599627857463625728;13630.1045;-60
2025-12-03T13:52:21.876;599627857471317632;13637.796;-65
2025-12-03T13:52:21.884;599627857479009408;13645.488;-72
2025-12-03T13:52:21.892;599627857486701312;13653.181;-77
2025-12-03T13:52:21.899;599627857494393216;13660.872;-79
2025-12-03T13:52:21.907;599627857502084992;13668.564;-91
2025-12-03T13:52:21.915;599627857509776896;13676.255;-93
2025-12-03T13:52:21.922;599627857517468800;13683.947;-95
2025-12-03T13:52:21.930;599627857525160576;13691.64;-91
2025-12-03T13:52:21.938;599627857532852480;13699.331;-72
2025-12-03T13:52:21.946;599627857540544384;13707.023;-67
2025-12-03T13:52:21.953;599627857548236160;13714.715;-60
2025-12-03T13:52:21.961;599627857555928064;13722.407;-56
2025-12-03T13:52:21.969;599627857563619968;13730.1;-60
2025-12-03T13:52:21.976;599627857571311744;13737.79;-63
2025-12-03T13:52:21.984;599627857579003648;13745.482;-65
2025-12-03T13:52:21.992;599627857586695552;13753.174;-65
2025-12-03T13:52:21.999;599627857594387328;13760.866;-65
2025-12-03T13:52:22.007;599627857602079232;13768.558;-72
2025-12-03T13:52:22.015;599627857609771136;13776.25;-72
2025-12-03T13:52:22.022;599627857617462912;13783.941;-72
2025-12-03T13:52:22.030;599627857625154816;13791.634;-67
2025-12-03T13:52:22.038;599627857632846720;13799.326;-58
2025-12-03T13:52:22.046;599627857640538496;13807.017;-56
2025-12-03T13:52:22.053;599627857648230400;13814.709;-51
2025-12-03T13:52:22.061;599627857655922176;13822.4;-44
2025-12-03T13:52:22.069;599627857663614080;13830.093;-37
2025-12-03T13:52:22.076;599627857671305984;13837.785;-16
2025-12-03T13:52:22.084;599627857678997760;13845.477;7
2025-12-03T13:52:22.092;599627857686689664;13853.169;28
2025-12-03T13:52:22.099;599627857694381568;13860.86;58
2025-12-03T13:52:22.107;599627857702073344;13868.552;107
2025-12-03T13:52:22.115;599627857709765248;13876.244;161
2025-12-03T13:52:22.122;599627857717457152;13883.936;147
2025-12-03T13:52:22.130;599627857725148928;13891.628;100
2025-12-03T13:52:22.138;599627857732840832;13899.319;135
2025-12-03T13:52:22.146;599627857740532736;13907.012;254
2025-12-03T13:52:22.153;599627857748224512;13914.703;383
2025-12-03T13:52:22.161;599627857755916416;13922.3955;474
2025-12-03T13:52:22.169;599627857763608320;13930.088;502
2025-12-03T13:52:22.176;599627857771300096;13937.778;516
2025-12-03T13:52:22.184;599627857778992000;13945.471;565
2025-12-03T13:52:22.192;599627857786683904;13953.162;511
2025-12-03T13:52:22.199;599627857794375680;13960.8545;203
2025-12-03T13:52:22.207;599627857802067584;13968.546;-119
2025-12-03T13:52:22.215;599627857809759488;13976.238;-196
2025-12-03T13:52:22.222;599627857817451264;13983.931;-177
2025-12-03T13:52:22.230;599627857825143168;13991.622;-205
2025-12-03T13:52:22.238;599627857832835072;13999.313;-217
2025-12-03T13:52:22.246;599627857840526848;14007.005;-207
2025-12-03T13:52:22.253;599627857848218752;14014.697;-210
2025-12-03T13:52:22.261;599627857855910656;14022.39;-214
2025-12-03T13:52:22.269;599627857863602440;14030.081;-205
2025-12-03T13:52:22.276;599627857871294336;14037.773;-191
2025-12-03T13:52:22.284;599627857878986240;14045.465;-189
2025-12-03T13:52:22.292;599627857886678016;14053.157;-182
2025-12-03T13:52:22.299;599627857894369920;14060.85;-168
2025-12-03T13:52:22.307;599627857902061824;14068.54;-165
2025-12-03T13:52:22.315;599627857909753600;14076.232;-158
2025-12-03T13:52:22.322;599627857917445504;14083.924;-156
2025-12-03T13:52:22.330;599627857925137408;14091.616;-156
2025-12-03T13:52:22.338;599627857932829184;14099.308;-154
2025-12-03T13:52:22.345;599627857940521088;14107.0;-163
2025-12-03T13:52:22.353;599627857948212992;14114.692;-165
2025-12-03T13:52:22.361;599627857955904768;14122.384;-156
2025-12-03T13:52:22.369;599627857963596672;14130.075;-156
2025-12-03T13:52:22.376;599627857971288576;14137.767;-151
2025-12-03T13:52:22.384;599627857978980352;14145.459;-149
2025-12-03T13:52:22.392;599627857986672256;14153.15;-149
2025-12-03T13:52:22.399;599627857994364032;14160.843;-144
2025-12-03T13:52:22.407;599627858002055936;14168.535;-140
2025-12-03T13:52:22.415;599627858009747840;14176.227;-126
2025-12-03T13:52:22.422;599627858017439616;14183.919;-109
2025-12-03T13:52:22.430;599627858025131520;14191.609;-100
2025-12-03T13:52:22.438;599627858032823424;14199.302;-91
2025-12-03T13:52:22.445;599627858040515200;14206.994;-86
2025-12-03T13:52:22.453;599627858048207104;14214.686;-81
2025-12-03T13:52:22.461;599627858055899008;14222.378;-84
2025-12-03T13:52:22.469;599627858063590784;14230.069;-88
2025-12-03T13:52:22.476;599627858071282688;14237.762;-79
2025-12-03T13:52:22.484;599627858078974592;14245.454;-84
2025-12-03T13:52:22.492;599627858086666368;14253.1455;-84
2025-12-03T13:52:22.499;599627858094358272;14260.837;-72
2025-12-03T13:52:22.507;599627858102050176;14268.528;-70
2025-12-03T13:52:22.515;599627858109741952;14276.221;-65
2025-12-03T13:52:22.522;599627858117433856;14283.912;-63
2025-12-03T13:52:22.530;599627858125125760;14291.6045;-58
2025-12-03T13:52:22.538;599627858132817536;14299.296;-49
2025-12-03T13:52:22.545;599627858140509440;14306.988;-49
2025-12-03T13:52:22.553;599627858148201344;14314.681;-46
2025-12-03T13:52:22.561;599627858155893120;14322.372;-39
2025-12-03T13:52:22.569;599627858163585024;14330.063;-37
2025-12-03T13:52:22.576;599627858171276928;14337.755;-28
2025-12-03T13:52:22.584;599627858178968704;14345.447;-21
2025-12-03T13:52:22.592;599627858186660608;14353.14;-16
2025-12-03T13:52:22.599;599627858194352512;14360.831;-9
2025-12-03T13:52:22.607;599627858202044288;14368.523;-7
2025-12-03T13:52:22.615;599627858209736192;14376.215;-4
2025-12-03T13:52:22.622;599627858217427968;14383.907;-2
2025-12-03T13:52:22.630;599627858225119872;14391.599;0
2025-12-03T13:52:22.638;599627858232811776;14399.29;7
2025-12-03T13:52:22.645;599627858240503552;14406.982;2
2025-12-03T13:52:22.653;599627858248195456;14414.674;-2
2025-12-03T13:52:22.661;599627858255887360;14422.366;-4
2025-12-03T13:52:22.669;599627858263579136;14430.058;-9
2025-12-03T13:52:22.676;599627858271271040;14437.75;-2
2025-12-03T13:52:22.684;599627858278962944;14445.442;-7
2025-12-03T13:52:22.692;599627858286654720;14453.134;-11
2025-12-03T13:52:22.699;599627858294346624;14460.825;-9
2025-12-03T13:52:22.707;599627858302038528;14468.517;-16
2025-12-03T13:52:22.715;599627858309730304;14476.209;-11
2025-12-03T13:52:22.722;599627858317422208;14483.9;-7
2025-12-03T13:52:22.730;599627858325114112;14491.593;-9
2025-12-03T13:52:22.738;599627858332805888;14499.285;-7
2025-12-03T13:52:22.745;599627858340497792;14506.977;-7
2025-12-03T13:52:22.753;599627858348189696;14514.669;-4
2025-12-03T13:52:22.761;599627858355881472;14522.359;0
2025-12-03T13:52:22.769;599627858363573376;14530.052;0
2025-12-03T13:52:22.776;599627858371265280;14537.744;4
2025-12-03T13:52:22.784;599627858378957056;14545.436;7
2025-12-03T13:52:22.792;599627858386648960;14553.128;2
2025-12-03T13:52:22.799;599627858394340864;14560.819;-7
2025-12-03T13:52:22.807;599627858402032640;14568.512;-9
2025-12-03T13:52:22.815;599627858409724544;14576.204;2
2025-12-03T13:52:22.822;599627858417416448;14583.8955;7
2025-12-03T13:52:22.830;599627858425108208;14591.587;4
2025-12-03T13:52:22.838;599627858432800256;14599.278;11
2025-12-03T13:52:22.845;599627858440492288;14606.971;11
2025-12-03T13:52:22.853;599627858448184448;14614.663;16
2025-12-03T13:52:22.861;599627858455876480;14622.355;23
2025-12-03T13:52:22.869;599627858463568512;14630.048;21
2025-12-03T13:52:22.876;599627858471260544;14637.739;23
2025-12-03T13:52:22.884;599627858478952704;14645.432;18
2025-12-03T13:52:22.892;599627858486644736;14653.124;16
2025-12-03T13:52:22.899;599627858494336768;14660.815;23
2025-12-03T13:52:22.907;599627858502028928;14668.507;23
2025-12-03T13:52:22.915;599627858509720960;14676.199;30
2025-12-03T13:52:22.922;599627858517412992;14683.892;42
2025-12-03T13:52:22.930;599627858525105024;14691.584;49
2025-12-03T13:52:22.938;599627858532797184;14699.276;53
2025-12-03T13:52:22.945;599627858540489216;14706.968;58
2025-12-03T13:52:22.953;599627858548181248;14714.66;63
2025-12-03T13:52:22.961;599627858555873408;14722.353;60
2025-12-03T13:52:22.969;599627858563565440;14730.044;51
2025-12-03T13:52:22.976;599627858571257472;14737.735;49
2025-12-03T13:52:22.984;599627858578949504;14745.428;42
2025-12-03T13:52:22.992;599627858586641664;14753.12;44
2025-12-03T13:52:22.999;599627858594333696;14760.8125;51
2025-12-03T13:52:23.007;599627858602025728;14768.505;51
2025-12-03T13:52:23.015;599627858609717888;14776.197;63
2025-12-03T13:52:23.022;599627858617409920;14783.889;100
2025-12-03T13:52:23.030;599627858625101952;14791.581;212
2025-12-03T13:52:23.038;599627858632793984;14799.273;467
2025-12-03T13:52:23.045;599627858640486144;14806.965;808
2025-12-03T13:52:23.053;599627858648178176;14814.656;1030
2025-12-03T13:52:23.061;599627858655870208;14822.349;812
2025-12-03T13:52:23.069;599627858663562368;14830.041;170
2025-12-03T13:52:23.076;599627858671254400;14837.733;-214
2025-12-03T13:52:23.084;599627858678946432;14845.426;-86
2025-12-03T13:52:23.092;599627858686638592;14853.117;18
2025-12-03T13:52:23.099;599627858694330624;14860.81;-56
2025-12-03T13:52:23.107;599627858702022656;14868.502;-46
2025-12-03T13:52:23.115;599627858709714688;14876.193;0
2025-12-03T13:52:23.122;599627858717406848;14883.885;-16
2025-12-03T13:52:23.130;599627858725098880;14891.577;-16
2025-12-03T13:52:23.138;599627858732790912;14899.27;16
2025-12-03T13:52:23.145;599627858740483072;14906.962;16
2025-12-03T13:52:23.153;599627858748175104;14914.654;9
2025-12-03T13:52:23.161;599627858755867136;14922.346;11
2025-12-03T13:52:23.169;599627858763559168;14930.038;16
2025-12-03T13:52:23.176;599627858771251328;14937.73;25
2025-12-03T13:52:23.184;599627858778943360;14945.422;25
2025-12-03T13:52:23.192;599627858786635392;14953.113;25
2025-12-03T13:52:23.199;599627858794327552;14960.806;35
2025-12-03T13:52:23.207;599627858802019584;14968.498;42
2025-12-03T13:52:23.215;599627858809711616;14976.19;49
2025-12-03T13:52:23.222;599627858817403648;14983.883;56
2025-12-03T13:52:23.230;599627858825095808;14991.575;63
2025-12-03T13:52:23.238;599627858832787840;14999.267;70
2025-12-03T13:52:23.245;599627858840479872;15006.959;70
2025-12-03T13:52:23.253;599627858848172032;15014.651;74
2025-12-03T13:52:23.261;599627858855864064;15022.343;81
2025-12-03T13:52:23.269;599627858863556096;15030.034;81
2025-12-03T13:52:23.276;599627858871248128;15037.727;91
2025-12-03T13:52:23.284;599627858878940288;15045.419;95
2025-12-03T13:52:23.292;599627858886632320;15053.111;91
2025-12-03T13:52:23.299;599627858894324352;15060.804;88
2025-12-03T13:52:23.307;599627858902016512;15068.495;86
2025-12-03T13:52:23.315;599627858909708544;15076.1875;86
2025-12-03T13:52:23.322;599627858917400576;15083.88;84
2025-12-03T13:52:23.330;599627858925092608;15091.571;79
2025-12-03T13:52:23.338;599627858932784768;15099.263;84
2025-12-03T13:52:23.345;599627858940476800;15106.955;86
2025-12-03T13:52:23.353;599627858948168832;15114.647;91
2025-12-03T13:52:23.361;599627858955860992;15122.34;98
2025-12-03T13:52:23.369;599627858963553024;15130.032;98
2025-12-03T13:52:23.376;599627858971245056;15137.724;98
2025-12-03T13:52:23.384;599627858978937088;15145.416;86
2025-12-03T13:52:23.392;599627858986629236;15153.108;77
2025-12-03T13:52:23.399;599627858994321408;15160.8;74
2025-12-03T13:52:23.407;599627859002013568;15168.492;72
2025-12-03T13:52:23.415;599627859009705856;15176.185;72
2025-12-03T13:52:23.422;599627859017398016;15183.877;67
2025-12-03T13:52:23.430;599627859025090304;15191.569;58
2025-12-03T13:52:23.438;599627859032782464;15199.261;58
2025-12-03T13:52:23.445;599627859040474624;15206.953;51
2025-12-03T13:52:23.453;599627859048166912;15214.6455;51
2025-12-03T13:52:23.461;599627859055859072;15222.338;58
2025-12-03T13:52:23.469;599627859063551232;15230.03;46
2025-12-03T13:52:23.476;599627859071243520;15237.722;35
2025-12-03T13:52:23.484;599627859078935680;15245.414;37
2025-12-03T13:52:23.492;599627859086627968;15253.106;46
2025-12-03T13:52:23.499;599627859094320128;15260.799;65
2025-12-03T13:52:23.507;599627859102012288;15268.491;81
2025-12-03T13:52:23.515;599627859109704576;15276.184;93
2025-12-03T13:52:23.522;599627859117396736;15283.876;102
2025-12-03T13:52:23.530;599627859125088896;15291.568;137
2025-12-03T13:52:23.538;599627859132781184;15299.261;200
2025-12-03T13:52:23.545;599627859140473344;15306.952;224
2025-12-03T13:52:23.553;599627859148165632;15314.644;189
2025-12-03T13:52:23.561;599627859155857792;15322.336;161
2025-12-03T13:52:23.569;599627859163549952;15330.028;219
2025-12-03T13:52:23.576;599627859171242240;15337.721;352
2025-12-03T13:52:23.584;599627859178934400;15345.413;469
2025-12-03T13:52:23.592;599627859186626560;15353.105;541
2025-12-03T13:52:23.599;599627859194318848;15360.798;576
2025-12-03T13:52:23.607;599627859202011008;15368.49;614
2025-12-03T13:52:23.615;599627859209703296;15376.183;630
2025-12-03T13:52:23.622;599627859217395456;15383.875;436
2025-12-03T13:52:23.630;599627859225087616;15391.565;79
2025-12-03T13:52:23.638;599627859232779904;15399.258;-116
2025-12-03T13:52:23.645;599627859240472064;15406.95;-133
2025-12-03T13:52:23.653;599627859248164224;15414.643;-151
2025-12-03T13:52:23.661;599627859255856512;15422.335;-179
2025-12-03T13:52:23.669;599627859263548672;15430.027;-177
2025-12-03T13:52:23.676;599627859271240960;15437.72;-175
2025-12-03T13:52:23.684;599627859278933120;15445.412;-186
2025-12-03T13:52:23.692;599627859286625280;15453.1045;-186
2025-12-03T13:52:23.699;599627859294317568;15460.797;-175
2025-12-03T13:52:23.707;599627859302009728;15468.488;-172
2025-12-03T13:52:23.715;599627859309701888;15476.181;-168
2025-12-03T13:52:23.722;599627859317394176;15483.873;-161
2025-12-03T13:52:23.730;599627859325086336;15491.565;-163
2025-12-03T13:52:23.738;599627859332778624;15499.258;-163
2025-12-03T13:52:23.745;599627859340470784;15506.949;-165
2025-12-03T13:52:23.753;599627859348162944;15514.642;-163
2025-12-03T13:52:23.761;599627859355855232;15522.334;-161
2025-12-03T13:52:23.769;599627859363547392;15530.026;-165
2025-12-03T13:52:23.776;599627859371239552;15537.719;-158
2025-12-03T13:52:23.784;599627859378931840;15545.41;-163
2025-12-03T13:52:23.792;599627859386624000;15553.103;-170
2025-12-03T13:52:23.799;599627859394316288;15560.795;-165
2025-12-03T13:52:23.807;599627859402008448;15568.487;-168
2025-12-03T13:52:23.815;599627859409700608;15576.18;-170
2025-12-03T13:52:23.822;599627859417392896;15583.872;-170
2025-12-03T13:52:23.830;599627859425085056;15591.563;-170
2025-12-03T13:52:23.838;599627859432777216;15599.256;-161
2025-12-03T13:52:23.845;599627859440469504;15606.948;-151
2025-12-03T13:52:23.853;599627859448161664;15614.64;-137
2025-12-03T13:52:23.861;599627859455853952;15622.332;-121
2025-12-03T13:52:23.869;599627859463546112;15630.024;-119
2025-12-03T13:52:23.876;599627859471238272;15637.717;-119
2025-12-03T13:52:23.884;599627859478930560;15645.409;-121
2025-12-03T13:52:23.892;599627859486622720;15653.102;-119
2025-12-03T13:52:23.899;599627859494314880;15660.794;-116
2025-12-03T13:52:23.907;599627859502007168;15668.486;-123
2025-12-03T13:52:23.915;599627859509699328;15676.179;-119
2025-12-03T13:52:23.922;599627859517391616;15683.871;-116
2025-12-03T13:52:23.930;599627859525083776;15691.563;-121
2025-12-03T13:52:23.938;599627859532775936;15699.254;-116
2025-12-03T13:52:23.945;599627859540468224;15706.946;-119
2025-12-03T13:52:23.953;599627859548160436;15714.639;-114
2025-12-03T13:52:23.961;599627859555852160;15722.331;-105
2025-12-03T13:52:23.969;599627859563543936;15730.022;-107
2025-12-03T13:52:23.976;599627859571235712;15737.715;-100
2025-12-03T13:52:23.984;599627859578927488;15745.406;-93
2025-12-03T13:52:23.992;599627859586619264;15753.099;-95
2025-12-03T13:52:23.999;599627859594311168;15760.789;-95
2025-12-03T13:52:24.007;599627859602002944;15768.481;-100
2025-12-03T13:52:24.015;599627859609694720;15776.173;-98
2025-12-03T13:52:24.022;599627859617386496;15783.865;-93
2025-12-03T13:52:24.030;599627859625078272;15791.557;-88
2025-12-03T13:52:24.038;599627859632770048;15799.249;-81
2025-12-03T13:52:24.045;599627859640461824;15806.94;-79
2025-12-03T13:52:24.053;599627859648153600;15814.633;-77
2025-12-03T13:52:24.061;599627859655845376;15822.323;-74
2025-12-03T13:52:24.069;599627859663537280;15830.016;-79
2025-12-03T13:52:24.076;599627859671229056;15837.708;-74
2025-12-03T13:52:24.084;599627859678920832;15845.399;-79
2025-12-03T13:52:24.092;599627859686612608;15853.091;-86
2025-12-03T13:52:24.099;599627859694304384;15860.783;-86
2025-12-03T13:52:24.107;599627859701996160;15868.476;-93
2025-12-03T13:52:24.115;599627859709687936;15876.167;-86
2025-12-03T13:52:24.122;599627859717379712;15883.858;-81
2025-12-03T13:52:24.130;599627859725071488;15891.55;-84
2025-12-03T13:52:24.138;599627859732763392;15899.242;-84
2025-12-03T13:52:24.145;599627859740455168;15906.934;-88
2025-12-03T13:52:24.153;599627859748146944;15914.626;-91
2025-12-03T13:52:24.161;599627859755838720;15922.317;-86
2025-12-03T13:52:24.169;599627859763530496;15930.01;-88
2025-12-03T13:52:24.176;599627859771222272;15937.701;-91
2025-12-03T13:52:24.184;599627859778914048;15945.394;-100
2025-12-03T13:52:24.192;599627859786605824;15953.084;-107
2025-12-03T13:52:24.199;599627859794297600;15960.776;-98
2025-12-03T13:52:24.207;599627859801989504;15968.468;-95
2025-12-03T13:52:24.215;599627859809681280;15976.16;-91
2025-12-03T13:52:24.222;599627859817373056;15983.852;-91
2025-12-03T13:52:24.230;599627859825064832;15991.544;-100
